40.526124475391335,-63.036271016241564,-31.46780813629886,29.489884188775733,-4.965816422273506,-15.513035183040884,-6.831354613187769,6.8645673124742155,-42.35207653244307,5.826790698213233,-5.404494018126385,-49.783887885726095,4.836984054204282,2.271568581138153,-51.425937962013144,-2.8014330165449373,0.5139774869377093,-95.9504281991777,-0.8872695751629807,2.6065908789031407,-53.951194166118825,-0.42645975440432776,8.922841879154166,-40.550455571055856,-1.211873220202585,0.671796113888771,-9.11669462826586,-5.586103333046522,0.24940633028183426,-5.853397856415131,-4.9065742366316485,16.160541229664556,-64.63727944127548,-5.223354558198121,2.081617837624805,-105.09729909508913,-4.230555200481361,-1.3175265385788533,-57.26894875787453,-23.18820064986447,17.488780022515435,-5.699582738899003,7.909575575838022,2.1047853983775044,-67.6940776738357,-6.8515091691364125,7.833125519095012,-99.98887771123736,-1.8240455485102738,-4.786027453977279,-46.69623624941173
40.691032759387944,-63.3931667062425,-31.267268352472698,29.54075360038986,-5.452612886696997,-15.665967828009004,-6.819766069723028,6.969267473616816,-43.10737595704004,5.836032628553581,-5.49972314614067,-50.49589559968965,4.763615093614263,1.9598748283958152,-53.443151865395045,-2.7991210708222556,0.5148387629709471,-100.31773797045997,-1.018700436926854,2.547614032639077,-55.93327035093427,-0.39039464826385273,8.968691025053653,-41.738161787348766,-1.172783509276138,0.5572987925465585,-11.382325413196904,-5.765629071813133,0.24806141095269296,-6.366206378070424,-5.035058992151685,16.130475989482353,-65.36329853380111,-5.13199141088096,2.0665728273202606,-107.14799008475673,-4.288020430279359,-1.5633809147820557,-57.44064757548446,-23.318282191912356,17.581988612965993,-5.723491445648873,8.121396370718871,2.2923498605555066,-66.60038014053187,-6.719327931319838,7.77655965496576,-98.62700620806999,-1.8760458928896189,-4.948147484530463,-45.26399616040245
42.42169079922254,-66.23059053043052,-32.36392274291675,30.957599101055262,-5.079256136759704,-15.890996529918448,-7.117784950398316,7.271877904882365,-44.64381743386349,6.210881076260658,-5.455070539923821,-51.81410191549892,5.23368064577361,1.86084932342555,-58.32341676340925,-2.786571804724737,0.5631881944437737,-110.29885405913808,-0.7033958127355481,2.6366927672139364,-61.56326793173701,-0.4383502627163869,9.200873585072022,-42.398562000867265,-1.090577420188455,0.5424198358817364,-6.191833291575755,-5.4434394566325,0.12993781443487618,-3.527832612796631,-5.229539030558205,17.00162139486356,-68.14104486835349,-5.348599745332578,2.35236081511276,-113.03602746589972,-4.319242629001659,-1.5436113453958835,-60.42306514918158,-24.446273461727497,17.989071904140115,-5.857361071944425,8.119328923558763,2.309789023428277,-70.64919726874537,-7.317730441732493,8.189732548155733,-105.82179558772089,-1.9990782899143758,-5.180755688354834,-48.7863131544774
42.40836779332338,-66.70144357347151,-31.568004823055137,31.127316656096003,-4.879653830016336,-15.90433063995347,-7.143077151364122,7.442086517087439,-44.94700564641678,6.2516004294632,-5.473211845613683,-50.72724591872052,5.2245759373286065,1.6559598326419307,-59.5145791863128,-2.858084278711251,0.6756666977926531,-111.82105075634631,-0.7753531327736591,2.591065317170058,-62.08984281903138,-0.4680796482149754,9.252288163749235,-43.05699184915702,-1.1532334977101562,0.47796410831361746,-5.329252628057495,-5.408078539119274,0.12689725320909762,-2.860521200753608,-5.13551548005353,17.158269313656955,-68.29173519366717,-5.299801645157014,2.2585812503162064,-112.70429180781933,-4.309438777213418,-1.6769357406360985,-59.5449461198343,-24.43370310465495,18.125829060872395,-5.927296320597331,8.297306331555491,2.540324676894206,-69.8998506986132,-7.3422633774166615,8.250118009701657,-104.06055735956829,-1.8696330892984248,-5.275474927361364,-47.02095417719033
42.290896029012536,-66.32123237507206,-31.383728587606143,31.11247606739796,-4.995535167435003,-16.004111367405837,-7.078743703409799,7.349333468185866,-45.45302329979855,6.077302842378255,-5.429383237849145,-51.895610656281555,5.24718141843032,1.5307642608843324,-59.10844851866367,-2.8330838266327967,0.5688098202703648,-110.65300580149164,-0.7964801787214569,2.6011236320226883,-62.08709008266629,-0.44797316569970774,9.056810714884763,-42.730261373907865,-1.1053378547289008,0.5000971593624058,-4.700474793703713,-5.396447538221767,0.14086430787281126,-2.3878488615974747,-5.09211360916417,16.876624605633854,-68.65136282275907,-5.367603206693015,2.296672756883817,-113.56654425505212,-4.354883131397311,-1.6080207650799707,-60.253907423208155,-24.4329096476237,18.188153584798176,-5.872241338094075,8.289573616308852,2.389322134095798,-71.56930279495678,-7.310607196758233,8.388130935672871,-106.71367135093423,-1.9148295537537656,-5.086483900488974,-49.29276249459138
42.11909623974453,-66.1020821145195,-31.38234088347819,30.948909140318406,-4.596166544102208,-15.734074044211887,-7.0844522247017165,7.332234869797321,-44.748008932007,6.116462179624478,-5.461009615822937,-50.9003757637612,5.174264597865439,1.661876707660962,-59.233788916961736,-2.889433206861458,0.5857027566141929,-109.96931224929234,-0.7904234488911678,2.4798917942602476,-61.67669094921818,-0.4729727765913753,8.8736020893149,-42.00484858205679,-1.1948055583974437,0.5341384416492049,-3.960658550453767,-5.284711871344685,0.13245898117535396,-2.0302040963823345,-5.009572898720983,16.856713160383567,-67.9008018558398,-5.263375796375797,2.2798342581334783,-112.08503624965518,-4.40463509798899,-1.613732254561297,-59.873982079657104,-24.222622847306923,18.032640833176572,-5.889666789412686,8.210436384161968,2.3979393126734077,-70.27730348665868,-7.211275847232127,8.275696122770798,-105.68744039846727,-1.9462785894271935,-5.086571546565163,-49.068670820514775
40.73601223842204,-64.12775712519293,-29.974265671735242,30.117947852869296,-4.555700797065139,-15.447867240922378,-6.932482108146323,7.139665697958603,-43.09020044001152,6.049868181996295,-5.451938955957875,-48.2718171988818,4.98275964888906,1.6351193446078478,-55.51906859659059,-2.7873805018720184,0.5839068581688084,-103.69512183002678,-0.8840685659875488,2.5180092647694092,-57.59658653475916,-0.4573949931223269,8.878123211563286,-41.62438506111796,-1.226015745248941,0.5937874385287417,-6.130618373698429,-5.435998922884515,0.10191432019565842,-3.5863405778497275,-4.954842076834987,16.159335718955308,-65.94441912432048,-5.1835563587068885,2.132610612796803,-107.98099526436197,-4.2952413242081775,-1.5594911410038472,-57.12567246108671,-23.586532592773438,17.758506774902344,-5.822160720825195,8.1550311201394,2.2761304052518505,-68.69566476767879,-6.90330725064036,8.03384582445795,-101.89127688961706,-1.8372439542298702,-4.916134892521474,-46.15540317337632
40.65569354960381,-65.08935285464224,-28.63630805814461,30.61040409185269,-3.301475426821066,-15.024449380715938,-7.215699136448716,7.413867928520477,-38.740891131898046,6.480578727759749,-5.514900431931494,-41.99058241186966,4.995220913228114,2.1675913930210773,-51.74999299250814,-2.9071954979640657,0.7668921880138225,-97.36988496766999,-0.9320273071571753,2.50488006956057,-54.72326502114415,-0.5427908851288956,9.202909257352468,-39.43438413780072,-1.2475971870790434,0.3775509703162878,-7.580937724839511,-5.256524598090327,0.21972131784795113,-5.103574232284908,-4.7917350738329185,16.687820237602647,-59.92468269376843,-4.970401338863912,1.86480488550342,-99.09836757069121,-3.9235678659949205,-1.6335653596699533,-54.278759109221454,-23.62969583639715,17.89244487383327,-5.940523450345473,8.520428138367198,2.6976422306718217,-59.871138993572096,-7.027015127856686,7.818991952807862,-92.41329010561805,-1.742709140714478,-5.015287754867344,-43.64955215328221
41.21383548270354,-65.63447991170396,-29.221449555324472,30.867029658642327,-3.6443723040957603,-15.188859755880387,-7.198746953837525,7.418473766587913,-40.0297063979949,6.539337248080266,-5.335320882972227,-44.52631683052916,5.1471897210847,2.0695823448960478,-53.984837525705764,-3.013340204568928,0.7694919999259765,-101.16327539517765,-0.92019650371621,2.520350992521331,-57.127508309495646,-0.6039910236325019,9.011241241135341,-38.78947367558091,-1.221674900667468,0.46551373573158344,-4.521159906353037,-5.171551739692949,0.31227069044770267,-3.9394379094405587,-4.851561107219255,16.72130596467069,-61.26469676544184,-5.018345865815971,2.0201074903396137,-102.9325954163808,-4.121899516839554,-1.538186748232594,-56.268495039337644,-24.054808667602074,17.953472723347776,-5.976258369328366,8.323119146139923,2.710600618715701,-63.468059465113306,-7.290579209955926,8.010749698801463,-98.06777344692193,-1.8368832183822377,-5.099993219995986,-46.97081440313021
41.77810317584752,-65.67077037353887,-31.960198989457453,30.56356374170588,-4.208846247446563,-15.48647054891043,-7.0313870685130455,7.337652241671262,-43.51899840159819,5.727949922758209,-5.190340727309056,-51.357362133635654,5.235320260760212,1.1797822029439236,-59.30858660974724,-2.955889535240263,0.7871060532151773,-111.56860733555226,-0.7818990578976527,2.3715951214179882,-63.03262571301017,-0.5867210420312472,8.736034515166716,-42.34448600478307,-1.266108197359722,0.40472868668966133,-3.9933368296483653,-5.103740825711722,0.21360373349213935,-2.586408147967014,-4.650358910295074,17.008703980180595,-67.95859341567814,-5.163583066002274,2.032505055633998,-112.21580307586355,-4.254725517635752,-1.3102587214515675,-60.671343200863795,-23.65778986612956,17.956265767415363,-5.934409777323405,8.197759858366291,1.942962081024857,-69.4853205326357,-7.282378277224659,8.327353970708412,-104.59072168209862,-1.8710084702298406,-4.8304546220127795,-49.80174448284109
41.90420874533374,-66.08099988559849,-31.6620405457523,30.74092927657975,-4.259830004327939,-15.512939708661712,-7.005106393983412,7.415754765877559,-43.91698628202113,5.906674220426239,-5.306121978129834,-50.23734960302219,5.197754759042729,1.3254350552017864,-59.46572246633854,-3.02277207831238,0.8144653705433829,-111.2457793800932,-0.8189422138586521,2.3666096552353704,-62.04384563084946,-0.6583803612835188,8.76547724026158,-41.857281497975706,-1.3120776015737468,0.3947625951977149,-2.206624327200794,-4.980384224901745,0.17032897454400686,-1.2484059061242032,-4.748727501430834,17.06215198232285,-67.27073653930738,-5.090203371053097,2.082291048556821,-110.62895355453254,-4.239771191848352,-1.4523163618153465,-59.37060621223751,-23.802080790201824,18.000329335530598,-6.0247147878011065,8.240698527847913,2.3355064892399278,-68.62741598903234,-7.2461629971809245,8.26380915804395,-102.83324549956926,-1.9386072597111677,-5.048347911072878,-47.91847311393989
40.890779814760265,-64.48909028026078,-30.091129813831852,30.27191533679036,-4.3016543860779395,-15.370216239031103,-7.083727546449674,7.296640779191325,-41.5329828450306,5.946147717384815,-5.335151250362198,-49.36567946626919,4.946544878447468,1.3912296394934731,-56.459880659326394,-2.775470673261547,0.5540515754533791,-106.4109679344307,-0.9078630586204143,2.442923399647364,-60.7864785439669,-0.4341514806164894,8.719221244325203,-41.914462649968705,-1.2311187206423584,0.429433920400615,-5.740448834111837,-5.462791572826532,0.012200324691093426,-3.4878500012424767,-4.886494563148901,16.64553867504739,-65.34024859228052,-5.188420795197562,2.094348808562838,-107.99776580025129,-4.290371439507803,-1.5624925337906534,-58.38422450366426,-23.47595469156901,17.85998280843099,-5.824033419291179,8.310095942245805,2.3777023388701517,-66.8738105516229,-6.839979928245422,8.02807269779733,-99.5931924335011,-1.787402108118373,-4.813223576309671,-46.56245174036142
40.81027255190862,-64.59041103126839,-29.344174960988468,30.38535920211261,-3.9108747160754764,-15.222824596375302,-7.113041226992617,7.319187945289053,-40.62539424325274,6.189676950509242,-5.449321244891709,-47.43550743217122,4.817407024001629,1.055663031612005,-56.09527721126335,-2.8039138698080186,0.6161543418996996,-105.26366830852612,-0.924727339979631,2.440324624295508,-60.15764184039648,-0.5219207873380057,8.727219649651472,-40.64270221086915,-1.2678207880824857,0.4001499228297957,-3.6023191137265287,-5.223752211224561,-0.03940005812005309,-2.947647797428804,-4.90648694928915,16.659820674934775,-63.62425139339147,-5.05209835786457,2.007430917085521,-104.93511895420448,-4.191764114404701,-1.5597608137641081,-56.9088259230931,-23.397374471028645,17.786487579345703,-5.973965962727864,8.279437548590167,2.555254382110654,-64.94902779032792,-6.918986091564707,7.89658149520636,-97.21278664126424,-1.8216035361250882,-4.9224919226552215,-45.3043813487395
40.433069408420145,-64.8073822832985,-27.36717480731076,30.504039219544975,-3.2978343837577277,-15.081773775290037,-7.211881659344677,7.4099281317133965,-40.55821337686633,6.398536990000136,-5.430200889829422,-45.400973811305164,4.7342658733043335,1.3555808009876011,-56.66832954515974,-2.8123008588991962,0.7299232739534199,-105.21252630728854,-1.1267799401390877,2.3422585211190503,-60.514379125768535,-0.4825349565320521,8.69528295472921,-40.869936409176056,-1.3544456624831038,0.283439849176505,-4.462679240248809,-5.386309048317361,-0.13998615167880793,-2.824708010146485,-4.830185908410246,16.609566307339975,-63.795854318989434,-4.970319752082674,1.8842052925502077,-105.07974370787474,-4.25486350149744,-1.6587857825337284,-56.630697371910294,-23.364334106445312,17.972368876139324,-5.9799753824869795,8.42493439670003,3.010329691578922,-65.40166866546178,-6.875859189883063,8.013092731331733,-97.46815732913244,-1.7286546074887565,-4.840036381176218,-44.71252563372074
42.1070959194629,-66.83427678690633,-29.934757715706738,31.52056025834591,-3.5210571269083197,-15.504148578508683,-7.409788032992515,7.461349578018027,-41.16491702829231,6.640074535548258,-5.544789185784656,-47.528438515581826,5.076037525816412,1.478617614610582,-58.525862750933804,-2.9126400391251366,0.6773551931172488,-109.71452824792591,-0.9323823694123572,2.624894345757014,-63.13417249179613,-0.5660677109645974,9.268407941567444,-42.85896640905846,-1.2698840764060324,0.4465229428248916,-9.191610804930164,-5.63230849853804,0.17544121853178196,-6.2921404455318815,-4.966673551099205,17.16138574605926,-67.20582709908591,-5.268562581185592,2.0285842386796995,-111.40930333900958,-4.363063281385009,-1.2895008960495236,-60.96325915636226,-24.370354384000887,18.393649609600775,-6.201667002782204,8.326574578460077,2.359688051457217,-69.53996649129876,-7.386382767741428,8.338086802700778,-105.44965152411486,-1.836996503300087,-5.02588883127402,-49.771682328787385
43.39295526633199,-68.65789372574206,-32.0749160834077,32.06945157586049,-4.152523808990929,-15.988629147955061,-7.518793926258382,7.736399888579302,-42.69387562487535,6.588958053587201,-5.531179855537722,-49.61579463986058,5.026122959836829,1.8029890125105281,-60.1261951095941,-2.918828908498881,0.6949516366930686,-112.30683125751295,-1.0042297661154753,2.481318188816085,-63.650056346102524,-0.4400166689835357,9.50874621797937,-45.77578042351109,-1.389470104278428,0.451615576995615,-12.250998305720778,-5.9437628189916945,0.09749855361119995,-7.274314409881295,-5.068508575188935,17.472832438115244,-70.04901233633136,-5.134048464839982,2.064799987989369,-114.63914870202906,-4.552389919022427,-1.5133640618809856,-61.67949529830736,-24.67412342924814,18.780067978197287,-6.292586083118986,8.59761591139241,2.5655294380750053,-69.41424676787477,-7.258350373423514,8.382051018807376,-103.83955701642681,-1.8548887210253913,-5.124741509957409,-48.40770574259006
40.04972643447752,-66.0661634898779,-23.175252095256656,32.118528678391655,-1.2363056535081294,-14.721037196739921,-8.103898645133155,7.59292010365905,-29.717555914376913,7.3898267868025025,-5.900525110451397,-36.645131729534185,4.6774768584614455,3.6610044786135205,-40.743149335979915,-2.808069520090546,0.5029562781064547,-85.45155383267648,-1.0847638315369792,2.7361024739634665,-52.047683382752865,-0.4544115723240372,10.17330398720421,-40.65420358932392,-1.3125730783210898,0.476979345314672,-33.61750872879477,-6.9031897725233184,1.0354875093767097,-21.343434130906928,-5.056277434029231,17.260510250054452,-54.49392899149928,-5.181036074304548,1.803755707083938,-96.88058180491372,-4.283151286841142,-1.4881938153273302,-54.95520067964987,-24.296513635194128,18.820392731971683,-6.057558952030276,8.559368463841723,3.777292712497108,-59.16660029711459,-7.362067254999382,7.853936027180338,-94.69524013167647,-1.7077610783319574,-4.7650028621864715,-48.61025445007655
34.30416354807267,-63.41278652373047,-8.69169318483773,30.697493549897075,-0.5197772546930047,-13.665676299125721,-8.381172197177309,8.423740154787465,-17.825409527598772,8.038800914358164,-6.4316515575597615,-13.342433859578051,4.160475715204158,2.404149189666574,-22.159492289439342,-2.826272763943115,0.779351518190769,-50.03261414047133,-1.8331220254526268,2.347357390586797,-31.286819202353836,-0.3599567876154804,8.908053729060299,-22.90299449368035,-1.2205074187464418,0.02385054959920792,-21.57222897724836,-6.750065102681998,0.7395371030827738,-15.13242329021191,-4.843340399117779,16.568686618527344,-25.957272149130855,-4.458096094322289,0.32175768214646755,-46.540839984559405,-2.7349376412196627,-2.9581170152845835,-28.515965625902496,-23.80835706246506,18.23777121821717,-5.595563844321622,10.612408863275224,10.095069235576878,-14.183584364072475,-5.67154708253618,6.242779478241734,-46.17577582763749,-1.0852360633797855,-5.449753855768367,-24.593612551157623
33.37924580517524,-61.719033169004284,-7.237121806799256,30.65409112172094,1.580648554134693,-12.526289048928563,-8.740738368599551,8.017731431701074,-14.974990694960391,9.364129165532995,-6.604364877820014,-1.6420047767271602,3.874523009113993,3.0989459606971548,-18.580540019319436,-3.066505053886647,0.8044956694715609,-38.23731283833063,-1.762198865430041,2.809229007344959,-22.80816756030198,-0.44843688739204585,8.694699254224844,-20.567373063521334,-1.218445081998236,0.4692010461088399,-18.392698223386788,-6.170307307957933,0.6284173390948334,-12.117574525648356,-5.073998629774129,16.501756535989433,-22.775904862306714,-4.161162161202743,0.5432887933395955,-35.68524371558609,-2.0858189815026935,-2.6746464738103537,-22.55715059504006,-23.70397615454743,17.92361135533837,-5.900281071032791,10.263851572889577,10.907711902204,-9.852884708782272,-5.616487280663584,5.8129608005272955,-35.51588080332385,-0.6939481494927087,-5.453591383421203,-18.46145060228621
33.64879106813563,-62.57907581800538,-6.764934315212698,31.400436379106722,1.9751933275985445,-12.59238645715979,-8.74787644895123,8.003093601876229,-13.604418448747799,9.949478900524609,-6.758838729377547,1.5504603953564835,3.932619953186364,3.103862092085638,-17.04210218077147,-3.0560151164020404,0.7881658492712935,-35.539507047729096,-1.725064202863484,2.7263095744257257,-21.450329989827605,-0.7464107824500988,8.467253390438467,-19.6005225042886,-1.3695308827864767,0.5038736439214263,-16.542226579076377,-6.235395904161526,0.4508621116033138,-11.989159011273115,-5.418947566101964,16.754969984374053,-21.70140171423707,-4.45196435510432,0.5262321247274584,-32.93554149833138,-2.1264593847614903,-2.8966385807299417,-22.26935969163073,-23.936596047916705,17.970751849855393,-6.181178124765316,10.298132510968243,12.037511037132825,-7.81283210642454,-5.762580692627495,5.679206602617261,-34.98048067136602,-0.7868453839888888,-5.544984889521032,-19.22432480211502
32.03263752193454,-60.115838784854056,-4.791095721789003,30.339036843203,2.539031719873357,-11.831834668320917,-8.60034727546737,7.833427986767354,-13.32762083310346,9.942106106345227,-6.682774248854894,6.74182124697336,3.6919237830312333,2.584951371329079,-14.87793398275644,-3.061492312184194,0.7667757517767356,-24.680344251776713,-1.7686159619471837,2.764689001108979,-11.99789545837446,-0.6200699053836211,8.136909804825528,-15.743019660297323,-1.3530777146572734,0.46211067894046415,-10.014140950006059,-5.478723514487375,0.16925972604672054,-6.8336642249546005,-5.170753858627392,16.06427049480347,-15.000204187683641,-4.024898524494657,0.36975387394359743,-17.143915546586836,-1.4906431655948449,-3.1229744496321348,-13.505417120484225,-22.84632817245988,17.47982236704178,-5.855324286078485,10.163277169838613,12.440738636722578,0.6328785672688012,-5.064646893015217,4.9233341228657475,-17.298850468223282,-0.2863087680663069,-5.47475173963204,-8.2569723317298
31.3380534029682,-59.30570917614517,-3.635624813558582,30.242271459467446,3.069430309401298,-11.45956364193863,-8.553035261485885,7.996596674596401,-12.514278280151958,10.46831169572603,-6.860126979193094,13.53112086807785,3.7073066100938235,2.7880205683114885,-9.624749600469299,-3.005942580384963,0.86278585086527,-11.198297292110382,-1.8169517238635509,2.9194228301154896,-2.3432024272033116,-0.5778106810750326,8.234538289777582,-12.217031645663267,-1.3287419241707592,0.4869211362056609,-5.520649070514291,-5.1993622177054455,0.01798420956116289,-4.244941912310344,-5.233369945666226,15.957619316252282,-9.734861325155041,-3.8503715922875137,0.3179786212481792,-7.210626406361981,-1.209419055096863,-3.3334052667664253,-8.895406350249724,-22.760640756608865,17.42156018101156,-5.911972754430948,10.406342951615766,11.81815711698009,3.8563489091987275,-4.868265143249468,4.693891048633025,-11.977607582277919,-0.22428412032082157,-5.499200398409272,-6.391611768593052
32.72683377668691,-60.03596052690262,-6.996851398223573,30.41900628613558,2.5875233651003837,-11.908960292259357,-8.5005957784972,7.841682582438826,-14.522560437501477,10.170492780681172,-6.656314220561733,7.140153887331915,3.9927876800777558,3.7574371705165195,-15.143148011873665,-2.9623726646302893,0.8339380203053807,-23.598852487270463,-1.7506098916485036,2.7707455586011123,-10.197400146931288,-0.5245419988610259,9.087405641964637,-19.39879173732326,-1.3779138312483319,0.5152490131738634,-18.90031013358283,-5.894964420717173,0.3866830788863633,-10.827056785704274,-5.110517919727015,16.402910981416984,-17.575184876001405,-4.21740654076119,0.4203351237775648,-19.895195522342046,-1.7129486096379944,-3.177254006294922,-15.184859758910306,-22.91610801545312,17.45119346780733,-5.791916737296552,10.22382754261787,10.83268244284507,-2.2668278887776405,-4.965722027603047,4.967350695966979,-14.200606104811053,-0.2355824268215961,-5.450549389840778,-6.698875781333711
31.746014767908317,-59.35256427568087,-4.852568451466001,30.335693868455476,3.3575104208125146,-11.347140505806726,-8.490881427948935,7.941836841607522,-13.338594408307232,10.465637923801994,-6.8639990960024235,13.328213846815345,3.856691483156121,2.483194652899672,-12.190545586436272,-2.947283120358712,0.815393299946248,-11.53276780810655,-1.798364492412318,2.951794992317853,-2.2349180266181317,-0.5914078391720287,8.242927263619576,-14.904463684418568,-1.2977718982999438,0.4776138251258751,-6.222299024167998,-5.247776913050093,0.07419914138339079,-3.8945470842715086,-5.139109498349151,16.47660684215762,-12.270603679341596,-3.9480740966866885,0.35163678242285074,-7.262473429652373,-1.1892521353490715,-3.2533228280812367,-8.509728434461046,-22.69125082287054,17.371795429383315,-5.825346236651249,10.200390684947859,11.920548007321392,0.2893662864656072,-4.824135314387605,4.721908742614544,-11.036532151477026,-0.10314447641177672,-5.491426546641359,-4.6862296080325585
31.54302451436658,-58.58690934396778,-5.510084471981841,29.887108225268076,3.476438927215426,-11.04014621752315,-8.484883554605448,7.780905693021299,-12.15407887880666,10.435066078562679,-6.660918049403219,13.923800271128966,3.8250426549190735,2.8262934371689385,-11.88516290561668,-2.8968317527052427,0.8206747130324127,-10.853184505744656,-1.8693442137015641,2.8527617783722614,-0.252731247396433,-0.5629192309562229,8.75051313781862,-15.384100410978691,-1.2829980197698498,0.4638996493984462,-6.274180305739383,-5.2188862879926985,0.06479217711852538,-3.525488155505636,-5.045415252301805,16.483197572064064,-12.578100546065537,-3.9091395689143735,0.32759673654515653,-7.225128954878947,-1.1976648418958182,-3.321614004351742,-8.93112639897975,-22.442804386279295,17.129844220381642,-5.671816678848451,10.14331441199082,11.586294228913331,0.09598134561181375,-4.782420364301455,4.7369602154034816,-10.059469384602899,-0.14470785161594954,-5.383677208373995,-4.855543932622115
32.03303639041887,-59.39905980662255,-5.878311291941717,30.1987316795593,3.146822395654541,-11.19680927441391,-8.491409294697318,7.908405666148483,-12.832836348153558,10.374724852523245,-6.811146717392938,13.472048216355907,3.8768262395341906,2.7848349016947105,-12.192826015106812,-2.950528180971381,0.8987291799384819,-11.585789963161233,-1.8261562528610105,2.978793798618289,-0.5872906655888694,-0.6516654823376821,8.801604864101893,-15.455642317267484,-1.3304401449110308,0.4568536497490457,-6.364159180835229,-5.21865667860391,0.07181404226193569,-3.7136514827448424,-5.024626687045198,16.77414881044762,-12.78756503754361,-3.866663962260464,0.38881573541247416,-7.2728946831967844,-1.1677898562329194,-3.1576870151240346,-8.928492144859115,-22.719874551888847,17.27536205520067,-5.776200415759038,10.180242610432218,11.690839102530262,0.5203346491183607,-4.8075906010323175,4.805037168673293,-10.044527540086046,-0.09778957342125418,-5.491728692032939,-4.652351370648036
31.9430531295915,-59.487461143137324,-5.504243804317528,30.24505660119888,3.4691051228278336,-11.133651105958274,-8.395905448667973,7.90332506460145,-13.538384280807724,10.452016402379096,-6.7493228772159375,13.402417600886906,3.86402767856006,2.622695951070507,-12.564188531416827,-2.9323066386981584,0.8210340314044151,-12.043221967033787,-1.7872552111769568,2.963917900926761,-1.359144059104455,-0.633482170077912,8.818936588887832,-15.852976789511018,-1.3218142977849092,0.4977767481366719,-6.644287665915704,-5.2809441638110535,0.05656796358879033,-3.8052599592761127,-5.045417184459663,16.733298210396832,-13.39235603985758,-3.932022975244307,0.41519118549044237,-7.525480940060312,-1.1338991319579523,-3.292959632095497,-8.927167258089696,-22.853643677245543,17.23737052340093,-5.79861377187217,10.240128356057237,11.526616265669775,-0.6124861853691191,-4.840821667886667,4.861418698983344,-10.477682581282584,-0.16934295096650784,-5.5256271510938015,-4.377826023997607
32.55053282840724,-60.36364678591889,-6.058593637430815,30.67053132704196,3.6980121893885425,-11.120759069230898,-8.520881109008338,8.011879515487236,-14.691145581393338,10.512137305327048,-6.777927490812023,13.218759304235363,3.8763430411807334,2.873163494728827,-12.507728569278688,-2.9404878531713714,0.8488863695958374,-12.127677266402586,-1.8957011071058505,2.9757176716228373,-1.0163605720261208,-0.6169657084459177,9.097119620795057,-16.084622022294337,-1.2986076186397142,0.4646343629210432,-7.261283647083594,-5.421218745635727,0.09866120539617013,-4.1344699093580415,-5.1334412666777185,16.937706940594378,-13.781287766342425,-4.03126098059749,0.38642441670024236,-7.874323576937118,-1.1967957736072807,-3.3496960466225034,-9.170465979971214,-23.32782236735026,17.56260935465495,-5.897790908813477,10.4367995201097,11.541066489198514,-0.1763434119029136,-4.938420988059238,4.974425776129475,-10.401100904734044,-0.13727712746100484,-5.653404344021072,-4.571951167161415
33.17376628310148,-61.44148417142214,-6.659484810083108,31.165805313048846,3.61549543577272,-11.484204438759482,-8.64796519898403,8.12542435649492,-14.560822462241768,10.719312273655495,-6.996288845415911,13.70491200298891,3.9612160235448424,3.1116057092741687,-13.736611887700876,-3.046207609803037,0.8699545397777179,-13.409028185366159,-1.86256494771309,3.101696217890355,-0.6905926304600377,-0.573577543232311,9.453427579507872,-17.42882519608439,-1.310099148086162,0.5460341249452669,-7.635116958754101,-5.368820216402049,0.046985952066742,-4.20396252827654,-5.233679465231879,16.98784891906516,-14.51373895945794,-4.071071576451657,0.44651764136119043,-8.772424001825977,-1.291326025897211,-3.3843247966843184,-10.05239780180973,-23.58037200181754,17.834685423691024,-6.0690012331256,10.52455300450058,11.272745249474417,-1.2550598614444255,-4.987045235718157,4.916645091986823,-10.86032670673624,-0.14248004252986843,-5.714790446008464,-4.046198116082743
33.64431565314222,-61.96715395935096,-7.151599155712945,31.39324998602976,3.7480674116694477,-11.537244271521276,-8.736624716865096,8.221113536272474,-14.922247390400514,10.747096906416639,-7.050377160530488,13.815698239893393,3.953340002896681,3.5032512711757704,-12.167647689770392,-2.9910452847282607,0.9187260923086739,-12.850310167616165,-1.9299595970713348,3.020672278334965,0.4124299654439168,-0.535210974810954,9.525603229186581,-16.50340144860187,-1.3078995700015823,0.49291673158617283,-7.6256050593055,-5.413150639021484,0.10752207271912195,-4.108453473675326,-5.198413183465102,17.234041834483282,-13.934077834370951,-4.069460132664262,0.4027063590926341,-8.453912706227188,-1.2764053212066284,-3.4756626766916328,-10.040960618029082,-23.75766666173818,17.965037937043828,-6.010164356959133,10.637443914526186,11.221714057761261,-1.2438493940140123,-4.967392703970411,5.009269110810547,-10.572604596551685,-0.1538897634395667,-5.732515544194709,-3.9663531121091116
33.32640901453163,-61.189019950999956,-7.6780540957960115,31.07544004079831,3.4290360666497133,-11.462993919021374,-8.62874499390511,8.00051039981691,-14.80007178895672,10.631377116733036,-7.064643000870727,13.410102013855683,4.034442240888969,3.5921348640428956,-14.376669614219553,-3.0088777434040543,0.801103819847471,-15.831272223538404,-1.8881622712042552,3.0753394985771916,-1.0065333850784939,-0.5283261885745979,9.649619904473688,-18.515821051398923,-1.313955581741854,0.4340033873936564,-9.816586185231825,-5.535123157581418,0.1804027228492359,-4.614106673056676,-5.195719320518846,16.9608475217218,-15.518376057890952,-3.992145605342214,0.5043386744831816,-10.493171146437852,-1.330141780058546,-3.488314636775281,-10.502260065044338,-23.451312726749777,17.80009595995179,-5.987725819295844,10.473175854334281,10.785267250204505,-0.831104334314083,-4.912664522489087,5.007686636006347,-10.529874547935522,-0.20087794015366953,-5.737766573498079,-3.9957460811687557
33.02884385725142,-60.35935011425399,-7.969770552042081,30.59203863326402,3.2895201401148726,-11.459460044296643,-8.514184250272665,7.9463381897972285,-15.37307045626943,10.389601440581984,-6.96235557743385,11.872843217689528,3.8892852647919782,3.4717398067698695,-13.942556643179273,-2.9538938272187116,0.8664911393487774,-15.604373197335704,-1.8331654334240062,2.9918187662117717,-0.8554075609487528,-0.4767639788057312,9.670763630927548,-18.259730845243563,-1.3217924202292328,0.5700317544528652,-8.922296459881004,-5.3058705035411,0.11050489948306245,-4.545141179210432,-5.039585328966699,16.927925028574037,-15.264595008435604,-4.0445917613211995,0.49565499860860657,-10.100470264239563,-1.2309692709383795,-3.4170299969417637,-10.483393728710771,-23.001567806611508,17.454620641254756,-5.850458453416099,10.322965142868062,10.786818889330279,-0.7998951766367846,-4.91124791354994,4.8983854700014176,-10.562455762085357,-0.15831305249495806,-5.582023926198126,-4.043707708887496
33.33331607361511,-60.99702165236288,-7.966383176588029,30.916323481840667,3.23637866987893,-11.687771431316222,-8.592294812074165,8.015313105881106,-14.638332730810381,10.568784208134785,-6.9993126262502345,12.222118488686299,3.9336188660470746,3.6018699103979217,-14.665819855487603,-3.061016708905786,0.8147433138230404,-16.10284206461255,-1.8222274823284632,3.0732237142545564,-1.5867367739156444,-0.43550802367894303,9.887866505107622,-18.460238362625407,-1.3110447586054779,0.562993190058687,-8.957280292617734,-5.325847902828049,0.048154231595359864,-4.436264391227772,-5.131615596346433,17.029252151663787,-15.287235502684,-4.08626308010531,0.46739602344426695,-10.46123248598258,-1.307681004378044,-3.3508328078250442,-10.854952059417501,-23.2030500255826,17.764866217399817,-5.929588646697933,10.45129003563274,10.67759766867737,-0.8566170003247428,-5.011717754757722,4.9260484664065105,-11.44244008934465,-0.1216993869418429,-5.634381564412574,-4.379137877592496
33.286841120159316,-61.07117566291391,-7.2298734835549325,31.108560727320015,3.4155678045148075,-11.589292521461664,-8.724796239473527,7.981480933524707,-14.284885552133806,10.61629389945094,-7.098470744886548,12.064440843020947,3.942684541862882,3.445463842170685,-13.336467160588361,-2.928206249394957,0.8615356600041163,-15.13554094592037,-1.8711246697018638,2.9848235761695014,-1.1385071349831826,-0.4598451158348921,9.9287051454196,-17.603424156438198,-1.3433665393044578,0.583279649753617,-6.947667805889626,-5.3470334832823525,0.06539405177273497,-4.020698086369852,-5.133781661126669,17.39758522937134,-14.7520095693246,-4.097402398582691,0.4358110187619328,-9.101761413652474,-1.326641001022387,-3.420926792556578,-10.465894981532687,-23.401447934192248,17.726118242353092,-5.897668679575638,10.400435168026531,10.936955937668207,-1.5990415207410684,-5.10104227551724,5.045485168770051,-12.031479491026635,-0.17854868001651902,-5.614239355176598,-5.328378216020719
33.97744050898872,-62.223646910032095,-7.532659015345868,31.595686857656144,3.588801381026805,-11.702293380642912,-8.705821214627269,8.159492061240584,-14.994434436578421,10.789109475099139,-7.119414162785444,12.25786581152452,4.011015565315068,3.3976624956827792,-13.476402144264993,-3.075209918162352,0.7879450716181506,-14.71193345045294,-1.8857631756229765,3.150707832624466,-0.7929535856343707,-0.49732761036808615,10.017592605204554,-17.663820615855798,-1.2935232781513604,0.5418042678480233,-7.4856110752792135,-5.434223272496914,0.07881107486266471,-4.132604408395871,-5.203253074889412,17.585506051511796,-14.54266561627472,-4.139323305972412,0.44904561737865434,-8.77697760782028,-1.254913645332097,-3.3375724852137716,-10.438432541458672,-23.810747130141298,18.03641969093412,-6.007399713287962,10.674663955965997,11.408919700329369,-0.06933462999107014,-5.094975154275127,5.0645501960655,-10.942398546090702,-0.15199266621204877,-5.767347833222263,-4.831348175770493
33.33668431712888,-60.94636133654557,-7.5634005025788795,30.99376699676301,3.3793312921904715,-11.512235024980939,-8.599723486679634,8.026323985789789,-15.08822623619799,10.55277300823675,-6.921122932693152,12.00986216613208,3.937006012349606,3.3433751380573145,-13.312272998279829,-2.9767547360673725,0.7892306665318766,-14.20531202191718,-1.8815856791880468,2.975687287089482,-0.6964058258330234,-0.4593541243506245,9.903872608934996,-18.037833313906727,-1.2939687254029104,0.5154707110893412,-7.867038666833634,-5.403353909920166,0.10546120548487026,-4.181187372791137,-5.109609575898115,17.255112280276904,-14.860709885399253,-4.099047405709464,0.33515919114557996,-8.995783548390191,-1.2842200306973914,-3.339127424014818,-10.29074447104928,-23.357047270091197,17.714362517396534,-5.850188063506553,10.465945130355381,11.033046512188866,-0.9852747685905093,-5.015118037287672,4.9773481453957835,-11.123143292260744,-0.124416854614252,-5.638534211598549,-4.711176743719168
33.327650732788975,-60.913619933634244,-7.538750563994487,31.012512411029633,3.8121106266998823,-11.297084875588974,-8.581237828434931,7.986577772905096,-14.963226728986475,10.66426867188389,-6.9503282841857255,12.484459833932112,3.960619933034476,3.3250085831051788,-13.855886188057449,-3.0034849983931564,0.7801705430659484,-13.450956442237503,-1.9053586840753454,3.026395289932871,-0.29875903439593204,-0.4933961780450659,9.685389035893202,-17.937819303608254,-1.197640224897267,0.5215447835104446,-7.3648747592577655,-5.307387659917082,0.07361987466841989,-3.936712574850445,-5.176449040598099,17.133605213650213,-14.89517788364275,-4.048847960125858,0.3786360349299176,-8.645890789137667,-1.2973820333711414,-3.3427658443013937,-10.1519731158085,-23.400883007236672,17.73031032746222,-5.89288305361251,10.43666855444849,11.049068943622055,-1.2752873962241875,-5.024449965007675,4.837004661888775,-10.86003070661648,-0.10058168778684769,-5.655771319383818,-4.370163283574263
33.89966383798516,-61.62025030776359,-8.326052101868102,31.327246629663904,4.059271958536427,-11.251333358608122,-8.61312734288814,8.106395215826065,-15.583580605460996,10.62976320477701,-6.846708978345373,12.010370465282326,4.021156327698377,3.459062766186047,-14.130978404071001,-2.9974136672054015,0.8012631600667927,-13.136235670641836,-1.8672546776892773,3.0095633254449594,-0.30717792071661326,-0.41930433710273235,9.819755799085415,-18.177771125351992,-1.3313325415724735,0.5415489485940355,-7.907204861093522,-5.436890797826699,0.06192925287711959,-4.079254496910187,-5.093044936116256,17.176160003602707,-15.222258209184597,-4.100710767929416,0.36257938139350304,-9.093594262334056,-1.2757348373080097,-3.294016123707362,-10.522739804547864,-23.519608895317656,17.85305186984363,-5.879275340884333,10.454223806561266,10.733891383753354,-1.8511517197829244,-5.0583124805758635,5.023814380916028,-10.952454920383147,-0.048219450640996454,-5.645048618046879,-3.7605310746411202
32.44903784770796,-59.4378966916365,-7.512216296109512,30.298158067780175,4.70531503110578,-10.47645896238145,-8.304644929581768,7.823421391763289,-15.429824275762295,10.339351379244691,-6.7411354131304195,12.43149163931517,3.8640243621811865,3.327336472920848,-13.270891514048389,-2.984670267640944,0.7844762346782819,-13.612505176539424,-1.8648634122009897,2.921423631287285,-0.3229443314023534,-0.5239280842321248,9.426922422944767,-17.28635396115287,-1.2716183834772132,0.5094565432593958,-7.596729184591907,-5.2806375808938695,0.09796800108394994,-4.066704812026561,-5.034180802480788,16.614494030316887,-14.904282491125597,-4.008708310036238,0.3873316830561315,-8.550708901079718,-1.2456771367579191,-3.3680320110097184,-10.04264947227115,-22.78384165026579,17.24314926078516,-5.769438792480794,10.184313876969911,10.304129933420738,-1.7701934985766001,-4.857843875462356,4.8765758373090895,-10.850200723818721,-0.1036232803762126,-5.562622842276279,-3.4973308126592317
32.35817243571617,-59.43749158418817,-7.210866347996628,30.27664876116816,3.551706072308601,-11.067975204094978,-8.381237915186661,7.803284879762921,-14.020358580912195,10.412942670123515,-6.734011236987331,12.538076756960967,3.9478795901663095,3.3844492303169074,-14.948449277309876,-2.8908874192184015,0.8221215193699472,-12.210691265540296,-1.876820258968121,2.9087916538029503,-0.7625133829625966,-0.5587084340336652,9.509422579693272,-18.354194716928994,-1.3224686904321905,0.5154031572242112,-7.843537807071352,-5.298881624985559,0.06858628638835475,-3.9344815158676987,-5.055793716129279,16.408739528410912,-15.526903214189405,-4.007528759249652,0.3775149981594441,-8.465873051384945,-1.2296081723301684,-3.2839901618783185,-9.768362931324452,-22.747264862060547,17.21906026204427,-5.753048578898112,10.177241453236505,9.937212314694383,-2.0003434769636614,-4.953894976681425,4.820951531549621,-10.589111859083282,-0.10832030074760145,-5.476649892897352,-4.043380128530138
32.86447149768639,-60.001220675339816,-7.653372278484015,30.47637228946459,3.5644996112495977,-11.189844598376053,-8.459345318622473,7.911888837996308,-14.217328289527472,10.395434721082893,-6.832627065141703,12.130467569612696,3.973307439859713,3.215650557019585,-14.504197380821466,-2.934353438234685,0.8201701782625426,-12.26110438990778,-1.873024796689113,2.970429264998876,-0.7408788281333164,-0.5530720372585604,9.563705495808462,-18.184268972504146,-1.3045656282430373,0.5138367839818428,-7.3090585493266635,-5.308787904377967,0.06788472383270285,-4.064297293439901,-5.0444517676622675,16.660978190517383,-15.194471051172664,-4.015656760336948,0.3958209484571016,-8.160075202296126,-1.2430092798932628,-3.281972600829704,-9.416489224327826,-22.984814883895314,17.325223227810245,-5.802406609395383,10.281160761660972,10.258612875081289,-1.752124519452772,-4.962885960585207,4.865409985403785,-11.196183336644793,-0.09380481759613846,-5.5350486775083,-4.312459597954477
33.051636160316164,-60.64922071075537,-7.437466799713756,30.913849925425808,3.700929177252769,-11.307242816415377,-8.566276330774883,7.967070237461708,-14.76418300484888,10.571936433101893,-6.92387163065883,12.547904805064618,3.952300802037302,3.323604564000848,-14.721054043352696,-2.922749532637182,0.8343877740326252,-13.821677152200557,-1.8322503610227014,2.9703388131897195,-1.1117260164931577,-0.5223050467847246,9.467563417550439,-17.666199778887243,-1.3419007807357994,0.5519889759168941,-7.300411627545407,-5.3279507751641235,0.06511133942198222,-3.98707732679797,-5.132178377438307,16.742329247049128,-15.08122805076753,-4.105187135868121,0.40182753547041766,-8.926303290333761,-1.2591280990014408,-3.3453388603858407,-10.150107680932168,-23.18742581153322,17.62200385865412,-5.889876573762339,10.38330120695408,10.415202223035033,-1.9627090265321165,-5.063273711520089,4.979513703963797,-11.939060390171441,-0.13026420907382172,-5.602776544234319,-4.558178649398642
32.96027951305924,-60.22932007304052,-7.831913987154007,30.656277263404064,3.8701147998833636,-11.076186167081701,-8.517664057177202,7.99661976632821,-14.808701609094284,10.392640472083295,-6.791183169796632,11.77289046855676,3.9791753075396117,3.331482641756051,-15.671736390796354,-3.005846715757326,0.8121564187778255,-14.070383442694492,-1.8332218833155718,2.9676028477382004,-1.3296553606698354,-0.4764139424871329,9.541279570304992,-19.226108434108447,-1.2792258935958822,0.4774104107503871,-7.967742541357528,-5.371357331335804,0.08286304320045246,-4.0842038087420915,-5.087663762680191,16.34238662341155,-16.27295617121921,-4.0428772129451245,0.40989070098706853,-9.513205120368509,-1.2937458130729327,-3.3195799305888003,-10.185437376947622,-23.043264944270703,17.53477217595906,-5.804528851964936,10.285270957975952,9.921257060317968,-2.4457188345650263,-5.001714435691831,4.936987172542967,-12.003700239464616,-0.03587284535862245,-5.540457753003896,-4.127515646469856
33.66274805969226,-61.49697909551961,-7.82977829169823,31.259482426628225,3.672522528831452,-11.438844066498993,-8.5906275252777,8.02547126373988,-15.419867831413898,10.568301989298632,-7.004996902157992,11.206422391763398,3.919754857553038,3.2825706401407206,-14.441197129514483,-3.0304056977445284,0.799226215864481,-15.411280344234571,-1.8208298561431924,3.0515391836297368,-2.0103400149931203,-0.5053008648038227,9.741747232119366,-18.09230550383386,-1.350272636823303,0.5418616338246355,-7.661341868312175,-5.36700908266275,0.06485445482019174,-4.2444110579546885,-5.135029502117101,16.78107288561611,-14.9668786141251,-4.109439060539174,0.4920927992810629,-9.727995155108909,-1.3040789348984643,-3.3399746537266854,-10.90463188806035,-23.422093227768112,17.831519714803836,-5.960525074003024,10.50756285626101,10.400419578617358,-1.359868392186043,-5.048076299316122,5.08792212719183,-12.14639336013895,-0.1655123630390587,-5.63953692459761,-4.50257148333574
32.589996574586856,-60.1413429351752,-6.850191815565491,30.604239189160285,3.6224149271834345,-11.16981998937046,-8.386431900152935,7.935658838035027,-16.332424419738235,10.367591397175504,-6.771766871679333,12.136022084444305,3.8660957636758018,3.2779589009371484,-14.944373994309343,-3.020949694002033,0.7627476755172223,-15.350327199597041,-1.816532507487951,2.8860906460676676,-1.795411576621615,-0.45432962931304993,9.486593586482881,-18.175050856249992,-1.3121596243673346,0.5086689364728585,-8.092096342244687,-5.341787339327948,0.09874429679731023,-4.1928391222398655,-5.031724249009894,16.601337072002813,-15.312984289266927,-4.027095639049007,0.3845105424421347,-9.099316936504767,-1.281483875942156,-3.3072289510065285,-10.50063718383864,-22.99323448682671,17.486864130736908,-5.77049490032805,10.278076612859792,10.519382862145582,-1.324463370633112,-4.888590091936847,4.984639913066178,-10.73389295775972,-0.10666724219949131,-5.568945009419738,-4.032621591123748
33.28649595265531,-61.15624196235436,-7.287154223455069,31.186544068127017,4.009245481950812,-11.091613622287682,-8.61078591179754,8.018230956716161,-15.669160506452819,10.618014302541065,-6.845671312969025,12.748880169496552,3.9743560459410623,3.48736858599041,-14.49215890543409,-3.0217859859729703,0.8344992087224145,-15.262956432913152,-1.8412765477043747,3.0496537786956623,-0.9989880768183905,-0.46136727770286234,9.812024096712353,-18.425006393864525,-1.3548611943144415,0.503548399875645,-8.537127956760184,-5.409484476296874,0.09204653651184865,-4.367813603887977,-5.04114808694846,17.114943489061737,-15.623706103778993,-4.142348526689911,0.45499245378852854,-9.381207270558098,-1.2882960493991125,-3.294379591083675,-10.76385112765964,-23.42994042905453,17.784074367792964,-5.916788389761469,10.39735810956528,10.676381385233583,-1.371182920786372,-4.985899078749321,5.109940677813273,-10.995804997242168,-0.06221030234754021,-5.691178336753018,-3.768231548195114
32.72366816612516,-60.36085125121116,-6.646033646794834,30.672653806149274,3.8488016730921975,-11.046823647099442,-8.362518901967741,7.9203255936249635,-16.19093157527125,10.429080339938686,-6.782741455136002,12.124359921729623,3.9549588022403293,2.9106084082132817,-15.513814314233755,-2.986526296890844,0.7711484835420362,-13.81679742036381,-1.8253893143976698,2.96547768572202,-2.0830100173199875,-0.5380853937074069,9.399884545486715,-19.32993697131345,-1.283755439712042,0.5056918615269682,-8.086985315937323,-5.392544008077446,0.07874713226975556,-4.226598339635756,-5.036908826447362,16.486566403691683,-16.096308092968638,-4.063366300171058,0.41163583024990186,-8.636650949617229,-1.2389000899161327,-3.2666868746279607,-10.238877370029295,-23.172711690266926,17.47845458984375,-5.841340065002441,10.295431881372407,10.584774717687791,-1.6791608387247556,-4.96110975113285,4.990643101633541,-11.3669144216434,-0.06798821457348649,-5.630093191978065,-3.5858571974020497
32.27262181027454,-59.244708896975375,-7.127770805129256,30.080658420092576,3.4126255014243276,-11.07277082544607,-8.2266919521158,7.777350576906836,-16.01168203696345,10.211897163361705,-6.682975039447586,11.066952002218821,3.9033318070743364,3.3853597027114026,-15.003577511619355,-2.8970953159641026,0.7907267493216464,-13.272806779791729,-1.8284733058453584,2.9887926907590994,-1.4627064072792229,-0.455344269429153,9.719374278072776,-19.721808930155287,-1.2790915973353052,0.5743848197852914,-8.02049534328014,-5.3172923145143205,0.06207495536512511,-4.197339682818266,-4.942683257868273,16.39970532113019,-16.40290054779283,-4.048551815188963,0.41566277440974986,-8.670807407941266,-1.2577949148693262,-3.1503702495478323,-10.169586925977862,-22.74835205078125,17.168561299641926,-5.727525075276692,10.114103278008539,10.254038651827248,-1.9959299936986084,-4.931767117942543,4.910867326387045,-11.465690589815338,-0.06019436085668297,-5.516226218871999,-3.7549108597883367
33.13237235799291,-60.43889239383058,-7.6929825728106636,30.56474743929564,2.868926739244202,-11.499855952407062,-8.284753862037954,7.9110486692851865,-17.67215630951552,10.29640348628325,-6.78880467939382,10.431722047150975,4.040184234899975,3.2441065926051125,-15.471771654928922,-2.980495220070393,0.8088657254060273,-13.214078534603386,-1.8761668113478018,2.9826196569437844,-1.6536091844821363,-0.5431778490323987,9.731394081755818,-20.262143483334047,-1.3150583965204197,0.518806370226807,-8.646683459508557,-5.417035342044045,0.08918012982597474,-4.543569350948045,-5.005670900580667,16.73998917203046,-17.078625653307594,-4.061633273549025,0.35039344555908913,-8.930687385413956,-1.270873636090671,-3.200710085404451,-10.480479545889716,-23.23560333251953,17.528016408284504,-5.841670989990234,10.307834220650129,10.65427583166395,-1.9485930533495137,-5.001765630601931,5.026324539619975,-11.40520684128416,-0.08992660560785681,-5.702070521044502,-3.6171125640579422
33.005914809654676,-60.66720988967021,-7.616261409033146,30.809334619858713,4.132576001852917,-10.851064964073684,-8.30947126071009,7.98525591996975,-17.901939140390272,10.242777488956678,-6.8193466040898585,11.349505385321512,4.041651524333203,3.2729308778282338,-16.73912771492571,-2.9741966903966364,0.8349452352167909,-15.388265811550959,-1.7787960678556791,3.0750132025903683,-1.4878662569061516,-0.5458500338831126,9.607519497542514,-21.006610808600556,-1.2572662715881462,0.5316674327802732,-9.553807840454624,-5.6154151970989865,0.22940736427209055,-4.38531665769016,-5.024954108045497,16.51907233624796,-17.97611595935804,-3.986306193935048,0.526913057743655,-10.20595618938811,-1.2893369549681648,-3.2675121641963916,-11.075245656634209,-23.402414957682293,17.663070678710938,-5.94993273417155,10.35472995427582,10.257079160852458,-2.887863378289945,-4.992479415374533,5.138482626644426,-11.620807696533605,-0.10776368741365565,-5.7208073423390005,-3.008984413762331
33.729307726246965,-61.723973890317986,-7.894646180297118,31.38299524750128,4.339883583539354,-11.005051453667962,-8.421449941193437,8.05941617608298,-17.64460894775021,10.56663128260305,-6.929876329499575,11.983432671415608,4.116874246655292,3.3155706456576297,-17.17203923401718,-3.0193951698893393,0.8305616317268062,-14.426296964679304,-1.9010535479443176,3.0192152933943124,-1.157126243112138,-0.5565042886415615,9.976035017146119,-21.36946702918161,-1.3469194359002135,0.5349467993648421,-9.025075181780322,-5.513420426957464,0.10730589745479996,-4.335504706648188,-5.077435180190728,17.09253295732822,-18.315329446230887,-4.095734411971184,0.3762231296244372,-9.437305380487715,-1.3460217275575026,-3.2933494609477947,-10.85407151561287,-23.66120783487956,17.84335199991862,-5.992142041524251,10.47515191351401,10.583879952316378,-3.09233056749015,-5.168038740655948,5.109399574880663,-12.299677000662227,-0.11435763355561661,-5.755895691664005,-2.9765879009780263
33.510877660148594,-61.513932937668415,-7.725853898286069,31.396343058532967,4.239004125158055,-11.064991202632186,-8.514632161589388,8.089373559134595,-16.85307348601412,10.514164992570285,-6.705400051671389,12.464567335857149,4.1796307394044225,3.4030864251882584,-17.08602471043541,-3.079364879320917,0.7527811707124341,-15.141804804533868,-1.7583882668808426,3.1571130092245254,-1.5340462452074464,-0.4308347505444074,10.052817582574995,-21.33033757156337,-1.2901875578936073,0.5238730431517705,-9.581423718746024,-5.649098893045637,0.12416977391357585,-4.329221967328514,-4.985699819210517,16.98300770846307,-18.38249855477993,-4.117546010526732,0.5961896709270657,-9.78658950955387,-1.1574880236990188,-3.2804609832795957,-10.927977453122594,-23.610360463460285,17.96582285563151,-5.982934633890788,10.337081930459615,10.415317752089349,-2.946314866832708,-5.104659399109894,5.1727162738480725,-11.939467423173182,0.03644213278126795,-5.810876241657231,-2.7079039552712025
33.50648165212183,-61.82112677246483,-7.042958301072328,31.54314730361713,4.244134153096637,-11.143416692891416,-8.51331516033161,8.056934358283337,-17.72535805355005,10.593118337218765,-6.79317535894491,12.010794861151043,4.15397125315608,3.272143661187293,-16.742807083536693,-3.037129886802976,0.7979551596542348,-14.791243529537923,-1.8763345992429452,3.063786019101538,-1.6282038626260773,-0.4604573635927464,9.784118616427165,-21.39131022630778,-1.3087539214087776,0.49095819654584805,-8.244276631941284,-5.554535936438711,0.05677743233125405,-3.9541438813775893,-5.110632173563221,16.932436604429704,-18.239154340575404,-4.1672367391429725,0.4355789738276603,-9.079783945331334,-1.2457176548950915,-3.33679610996969,-10.80001406306195,-23.74308141072591,17.96442159016927,-5.981864929199219,10.473142043085593,10.566617586556175,-2.8856682289220164,-5.223221922324764,5.20693563843568,-12.895548875468895,-0.003891821027742428,-5.796116150973261,-2.4709669213641567
32.95878335244608,-60.797434606830386,-6.727166049192122,30.97887237401643,4.3080041948310495,-10.922196887673321,-8.3925829494693,8.012724139920293,-17.874265785493062,10.366473408503667,-6.658873637115316,11.67885791503973,4.0905847601127014,3.2907843647876125,-16.499944699185743,-3.0520642401554543,0.748742330674183,-14.589625658909526,-1.7693067826408626,3.1328469245164037,-1.939548584835962,-0.3947808961110442,9.61427253148199,-21.235451334447987,-1.3227800559258533,0.47555460119249343,-8.62346287007781,-5.351726927353248,0.028525748738566687,-4.142037275576207,-4.957257258512123,16.555020068365064,-18.009758630157325,-4.056938180707168,0.6045906240871898,-9.053815066123915,-1.1625093492777057,-3.2612449043980525,-10.597067376875732,-23.207377115885418,17.681190490722656,-5.930035591125488,10.252240551122632,10.178203594852521,-2.5642304066610886,-5.039701099170689,5.100156590486779,-12.640333874409782,0.09349567720513198,-5.642802617627794,-2.0320785116406457
32.84666461242438,-60.66573454970353,-6.613818616199565,30.99259502052764,4.566017589224723,-10.729707005013958,-8.381734842126187,7.9624865036513155,-17.61076144039154,10.468051559898287,-6.736603093488782,11.77337941797672,4.1759494895688345,3.2576062587253944,-16.272435367387942,-2.9635120697663155,0.7805247698455035,-13.576971132742012,-1.7688204239734084,3.1188878901604187,-1.473109341662954,-0.4547149790916272,9.6090740985896,-21.210912166851546,-1.2845403232537123,0.5358948671072399,-8.509617311592725,-5.52153571963875,-0.0005152439373199563,-4.03035748885458,-5.0663551617175075,16.435021119012124,-18.08741489706213,-4.129662446923157,0.4743183080708198,-9.163053467736953,-1.1686362097512113,-3.2130644921494684,-10.793609904297165,-23.355653127034504,17.671348571777344,-5.894630432128906,10.286635922883269,10.120558013015808,-3.03654092801573,-5.170838425462169,5.099601922040757,-13.465188464663735,0.05673285473124629,-5.751492934067422,-2.17635990135081
32.967187390938015,-60.364322056681125,-7.3873132059333315,30.800011968829228,4.124690131936396,-10.960118059838493,-8.24882184122153,7.93593989384232,-18.333251491390367,10.187136452014009,-6.573519596792518,10.978082078799375,4.029664410801899,3.1631945773650614,-17.16842734830291,-3.0509912192116673,0.6716050823202503,-14.916214601538208,-1.6738413290685912,3.0648211399195104,-1.6959890977032117,-0.33957313086607166,9.593403925463337,-22.486664268030367,-1.2670082139894578,0.4714470084522238,-9.568869522832001,-5.364044897367376,0.08765791561434494,-4.37923177034557,-4.8704137902977545,16.339817354441234,-19.156597673454876,-4.038917005703502,0.7173878628462383,-9.251737397614084,-1.1885137001558395,-3.2051772992621266,-10.397816396268121,-22.985331217447918,17.598368326822918,-5.874777158101399,10.136120511478355,10.226355474829608,-3.1177470772911797,-4.856694604430191,5.0604841479049165,-11.567139093758213,0.189686106730292,-5.5792161461750736,-1.1934332935267007
32.796307134647584,-59.8418030952202,-7.379380083690843,30.35697210486121,4.19228070762582,-10.662426720124103,-8.194423342134499,7.869132931945528,-18.068800858580143,9.958497586331326,-6.479730437905386,10.747107994721198,4.125541055915163,3.3895770195833848,-17.348335099989647,-3.138751280255638,0.6568229956714342,-14.611802557267884,-1.6141413969494949,3.2643171624828766,-2.3287015682364984,-0.44649821846482846,9.452208040570808,-22.95896006713745,-1.1749149457817767,0.4263585854493021,-11.01281741730469,-5.3964441719337595,0.2670070061831011,-5.080198956910252,-4.720957288469555,15.79091816817045,-19.60618919274843,-3.9972271941602657,0.7765228490549002,-9.869044169585932,-1.1122898334507745,-2.9990008357065894,-10.616322403300975,-22.951709747314453,17.475238800048828,-5.9974365234375,9.986055652534214,9.289361344890873,-3.3908497757383533,-4.932831559040748,5.084523116116599,-11.897134921390512,0.1830873004492759,-5.6979899289490445,-0.8396793956951271
32.97593631604253,-60.57166124283072,-7.0807645269699995,30.84142415110682,4.3053279234060575,-10.810959239566671,-8.289510594382529,7.9661180710460044,-17.59746599505941,10.422278170663981,-6.723384781573421,11.559689906615413,4.141176811667152,3.3649821194135714,-16.860145070565853,-3.09409065874195,0.7993282904267799,-14.258563416715203,-1.7851287480851061,3.183346300485672,-1.5744485993972568,-0.4283295726520428,9.559812024763108,-22.183949434883687,-1.2384099874070353,0.4713282081259326,-9.421036931089565,-5.388906833166243,0.03060275712615351,-4.454885639990704,-4.962486649157207,16.24375293592369,-19.151636998823367,-4.037732811511272,0.5082347453934468,-9.69567789130868,-1.2052692962726348,-3.220107419370183,-10.89266349020653,-23.298187255859375,17.62243398030599,-5.922823588053386,10.22493203288291,9.85114564370234,-3.8168394941968713,-5.074459285570669,5.079879992860618,-13.115332178076264,0.044227770303365714,-5.706205255704923,-1.7128809145296706
33.027325402718176,-60.385490880809876,-7.610513761733319,30.77032222471345,4.210314779075978,-10.834277541168463,-8.337180965198385,7.9351077973036155,-17.972802456268102,10.143941266946358,-6.588511621535013,11.235338114196274,4.166412711099266,3.5115911971667515,-17.363468256387176,-3.1275272672946683,0.7162002385359543,-14.913031849861056,-1.710747742558712,3.181598002826707,-1.9314580853370307,-0.38388344579012906,9.496019066901258,-23.2623778034738,-1.2277777783485333,0.4455687824296137,-10.414965757279116,-5.465741596027758,0.25199727939128924,-4.751463261145327,-4.82221569355321,16.07147556072252,-20.224099306191928,-4.066071195640288,0.6740682797991954,-10.317191478183753,-1.1743765213302888,-3.1304919717008883,-10.786154991455627,-23.20313771565755,17.629376729329426,-6.007051150004069,10.047629926134565,9.514797292161681,-4.3590480072117055,-5.041916228036985,5.170378090861955,-12.587233530270872,0.17061633517403077,-5.755832578485159,-1.1677114569703269
32.98916903348504,-60.50516431473889,-7.0287757868893666,30.83190071409631,4.075300203660813,-10.95340066877966,-8.30151591255071,7.9318946923893705,-17.200124451482925,10.475469382450438,-6.730217034595029,11.27182871953165,4.122688065996058,3.2899192845657876,-16.526523129361674,-2.987170227552177,0.734816264131363,-13.970217325124734,-1.7005471597155764,3.153456049607064,-1.5761261782176066,-0.42391302886842924,9.653685258845021,-21.698278980142884,-1.2838061464634427,0.5907249391894951,-8.604487122830562,-5.371775863643321,-0.01079445637398308,-4.2028771831051674,-4.98436354857876,16.355463901267306,-18.694520092918566,-4.0979428946444285,0.5313071033984099,-9.343100149248919,-1.1605141059995236,-3.133883618734036,-10.728640839490106,-23.276028951009113,17.6136957804362,-5.904609680175781,10.179401321359974,10.081135164360253,-4.1915492146405855,-5.0940263676978885,5.100010298667621,-13.310427760989244,-0.006390235171508542,-5.703746206878585,-2.182003304065472
33.47202574375572,-61.38789261962132,-7.29471467280895,31.186896179330805,3.9800572204929474,-11.130340953026836,-8.394280579786908,8.105920498736795,-17.55944949680896,10.359893822508592,-6.706672795036444,11.393485563301198,4.172071203717177,3.287381824113254,-17.316820146617307,-3.088250249938946,0.7385789448415364,-15.316605718537508,-1.7716344016158676,3.112996306976774,-2.1659788123479333,-0.4139304827594694,9.673844691739754,-22.570807853208436,-1.2593214230725704,0.4378605684735535,-9.335643451546403,-5.4908464296234625,-0.008340638214550528,-4.4645077407810385,-5.006889097479376,16.560408455069908,-19.291807534223878,-4.058554399849915,0.5612039757360022,-9.661623092739587,-1.1949859314019526,-3.263257911620182,-10.84036481089498,-23.531895955403645,17.863494873046875,-5.98359489440918,10.330178046943393,10.208849840254622,-3.4131234212353943,-5.017336822936179,5.188987889204486,-12.567315765775646,0.074458205781583,-5.775353744136464,-1.6647366805318997
33.41497831304842,-61.28471413855366,-7.359021613937466,31.15759253756781,3.9812405487268485,-11.089233200640408,-8.402848803953457,8.049927753726124,-17.373173326544904,10.519284801198923,-6.850035191010537,11.572050119779535,4.0986726293304585,3.2487926891949037,-17.026757142544895,-3.054964698857329,0.7889698599384646,-14.685552157991816,-1.8135709943379403,3.0796873119123345,-1.5700305732508584,-0.4728838250418838,9.883156476133006,-21.404354466862,-1.2993959310306804,0.5280246456319798,-8.628676471016766,-5.452055016724731,-0.004280468285112564,-4.414686010069002,-5.057574420231358,16.879579866895195,-18.091593901830326,-4.126925671756304,0.4140802762358739,-9.469939975538997,-1.28923110716973,-3.246541275139767,-10.79898972896934,-23.53054428100586,17.775416056315105,-5.952913602193196,10.419078137222224,10.728110512073059,-2.8335761972532922,-5.092977701872666,5.175851298390891,-13.06555412410066,-0.09820423673504354,-5.741110209179962,-3.1907216748690437
33.32647244233098,-61.37179439117592,-7.023426689118378,31.17732948401309,3.9433739976728184,-11.147281480009328,-8.429249318850298,8.021190531521848,-16.754089439714225,10.549240190228996,-6.810272070353403,12.132055195172983,4.082437110750474,3.304914679323327,-16.180439766634873,-3.0507960329593273,0.7795262751304769,-14.978122824305075,-1.8791797203041976,3.043152586372426,-1.899135475874316,-0.46663598500845344,10.037198324934431,-20.902179686307722,-1.2981143623834444,0.5384591282458703,-9.153496807341162,-5.513716719312569,0.04032833592651522,-4.6281879551100635,-5.06325071877836,16.878587171778083,-17.68226162037205,-4.08477760389653,0.3604801993826594,-9.548018599513505,-1.271266153410633,-3.238477054366602,-10.98378003441753,-23.57836405436198,17.811927795410156,-5.93241532643636,10.408966413349434,10.61231909762162,-2.1830402889833564,-5.1450414296304485,5.1250196963516474,-13.091549004414807,-0.09527871592540861,-5.764009135488795,-3.131414773210485
33.603559560073855,-61.85554352648517,-7.267041246571445,31.441263342405463,3.8544554699290727,-11.29542633034098,-8.487489350722813,8.098178240632603,-17.444257886620242,10.566259117807506,-6.862547010830322,12.04246591572081,4.164310065469749,3.1780625785949987,-16.91157145243402,-3.073538463101913,0.8134753383274328,-14.84395944662045,-1.8540713124106254,3.0540208579834833,-1.8322853744961278,-0.5564658496921312,9.987652624123646,-21.05867848277704,-1.3088375860983132,0.5047640907499981,-9.519397695003125,-5.612748323919242,0.10316409504293374,-4.658855645918433,-5.129071010022435,17.06473354523471,-17.80926213439331,-4.158169449896708,0.40677748224566934,-9.86481371452022,-1.3378235870156268,-3.3080044617103463,-11.31777813958107,-23.801129659016926,17.930152893066406,-5.993524551391602,10.51995578544585,10.725464421823068,-1.9231386438675686,-5.200101881729756,5.174515703186124,-13.359170109158171,-0.10164046879277666,-5.803960816745537,-3.3259933085016775
33.38682026030505,-61.574400307219,-7.040754957258528,31.36764200069958,4.1415831597811525,-11.14478729769911,-8.464477984706287,8.0734074532184,-17.642559062214108,10.499920601026169,-6.856998065162256,11.752346548596107,4.183308081121374,3.420191225875275,-16.156830597102672,-2.9996436187184887,0.8431365186543821,-13.996768603586373,-1.881611373307268,3.068244198685712,-1.4468680185454417,-0.504869894469777,9.8719366230831,-20.941758553506613,-1.362478496583772,0.5316171137107503,-9.093014838616698,-5.508710202541823,0.025301885383806802,-4.563213268620184,-5.106136031013826,16.934284413669953,-17.502820472592276,-4.171795275459325,0.3951824128161429,-9.627402662262151,-1.3475443421159137,-3.2737871696727296,-11.035835227168244,-23.530555725097656,17.847493489583332,-5.975619633992513,10.448890760672027,10.569416848647919,-1.9018214102356261,-5.154724772140669,5.10702697697513,-13.464415772697256,-0.09452196374522093,-5.7729040855432805,-3.6235524130591634
32.99435335195765,-60.926704509150035,-6.724189577207862,31.030029272116195,4.223742028585166,-10.969974869244679,-8.29910711635774,7.960645277171911,-17.1504248022389,10.463678036086685,-6.859152866926062,11.917625625927721,4.08917211751115,3.2093234051479533,-16.478935126642053,-2.997977839746985,0.7689440539129228,-14.08083859069476,-1.8829125442136503,3.00075757539477,-1.4290212667864,-0.5722449320453342,9.606585974223345,-20.76208793295726,-1.3241351325952158,0.5354659982594321,-8.733305144144014,-5.445677366678645,0.01925018383675345,-4.494456184699318,-5.103888685718314,16.633452631591524,-17.51362178243258,-4.111937218101403,0.3940551581474836,-9.451496894643773,-1.3191192048497327,-3.241554880762568,-10.920810468686637,-23.313153584798176,17.57763417561849,-5.9043019612630205,10.352649480193373,10.330470953188945,-2.2725426731618974,-5.1297575507494,4.998301888816573,-14.044097851885319,-0.05958812524366611,-5.677360645956671,-3.204612794388177
32.99730772257571,-60.64958003684156,-7.242497158480911,30.871288976906953,4.108016804302895,-10.972768877418245,-8.37015316084018,7.963598256220853,-16.771289925875156,10.364680294340834,-6.765325972033534,11.498478119259866,4.058281623882254,3.309124081365701,-16.38361807144651,-3.0046047991869465,0.7518038439963418,-14.567266492648253,-1.8709122969142087,3.011268621761476,-2.227795999094807,-0.46295146833852213,9.742443507044287,-20.87401977902909,-1.3045827912324366,0.5356680952216498,-9.020218835861693,-5.460001613541118,0.007284279129178765,-4.55997315653023,-5.048629849092497,16.479070654189638,-17.507981399416597,-4.096572417053257,0.35149025973493525,-9.638939141158305,-1.340658810107988,-3.2482455930466876,-11.275114467728555,-23.221043904622395,17.628611246744793,-5.835176467895508,10.334716175714105,9.908017623866778,-2.598227754399917,-5.045679951587611,4.991297966815968,-12.88159181904526,-0.02559916624764944,-5.70157200748397,-3.0117144994933813
33.084491317133065,-60.75633369713986,-7.070580552825615,30.953146172543864,4.2109740353841545,-10.953250313166981,-8.413965059577778,7.952095599657015,-17.232493326362732,10.422572862301601,-6.775192709828919,11.488160467759904,4.08953683573443,3.3527466105932575,-16.224661753152613,-2.972283223001726,0.805205575636229,-13.930598495016932,-1.873646874583747,3.0110734961954955,-1.4904066594229837,-0.4525896320803516,9.637225325639184,-20.887051774030994,-1.3330708804688312,0.5236078530547498,-8.420917209632613,-5.394984320969974,0.05445251250954488,-4.243462622549481,-5.032489684816592,16.47151790188138,-17.643527759478022,-4.0956846804041644,0.36785536757823906,-9.22177579117123,-1.3412765686585646,-3.1941934952790683,-11.00570558363683,-23.295333862304688,17.653477986653645,-5.8597412109375,10.261281117990823,9.919423961396493,-3.2087827426990256,-5.102062341921541,5.043830964232158,-13.250559399472003,-0.040991887101457646,-5.675947249190638,-2.837252718163564
32.931790841525725,-60.50575532423108,-7.1954304652072665,30.830831081707558,4.1563601337535765,-10.949521522931988,-8.457406596628955,7.976733167911113,-15.705878787759223,10.442433261547196,-6.72135297461048,12.29988236873657,4.090254154508362,3.5919573548152024,-15.50875415508603,-2.972813384823363,0.7878700771818042,-14.445292883817118,-1.8418436474491067,2.981228641789086,-1.5635103040220983,-0.4422451406184272,9.876745411827228,-19.895833880234232,-1.2815312878712033,0.5116644077792306,-8.687314456165108,-5.423746804767298,0.07295411129089513,-4.442098949621609,-5.008613779184657,16.516131015113256,-16.66619453680862,-4.112189883739094,0.3963952274581575,-9.406952245293512,-1.2917376248490673,-3.2656836025324716,-11.020942382997562,-23.219149271647137,17.55155309041341,-5.822625796000163,10.280476693630455,9.916322969515754,-2.221251710144701,-5.061781485179315,5.042515083585183,-12.740706963745708,-0.08079210800207114,-5.658345133048214,-3.8070650463909494
33.07438575852244,-60.67609681826453,-7.3011565524789575,31.006610524918667,4.517004786405276,-10.824189933599955,-8.481745920868562,8.011759705270594,-15.757536941579374,10.556791748226393,-6.709426455926661,12.945661588952332,4.14106731434176,3.896985694582261,-14.798485433658165,-2.98093342387223,0.7948063120326386,-13.82342620343244,-1.8645396342193443,3.0671844649892646,-0.6038055031307498,-0.37970413236863404,10.114981972601129,-19.79943303527997,-1.3064139955489154,0.5288815949417321,-8.80543577711578,-5.460067867455266,0.0812503600776895,-4.648599625292902,-4.990722240036599,16.588828473772185,-16.778768017605998,-4.103892952730507,0.4337257146014064,-9.323047118218174,-1.2342092024604545,-3.26415387261877,-10.693977241282909,-23.247634887695312,17.677385965983074,-5.888071060180664,10.271369560305875,9.549550964670235,-2.5473833563205193,-5.07461268118814,5.042021370013733,-12.621441168646212,-0.0317960156253738,-5.696714593001129,-3.6173629700877012
32.78664207407118,-60.38418025908647,-7.117082534328763,30.786364697118092,4.219563761220045,-10.898121184017276,-8.364073240965954,7.9449885151707464,-17.43001692909399,10.37773738943678,-6.592735035338902,11.650282838074515,4.168935010054335,3.543200536269404,-15.885007371831714,-2.9906377412316005,0.7976352575608083,-12.51556410773675,-1.809021053156676,3.0893918725201495,-0.32028871044273616,-0.3983745171301141,9.619107818868608,-21.70068058951675,-1.301576636366141,0.5029016437129721,-9.218672983156415,-5.440919075980072,0.04646632562089798,-4.207819564559844,-4.960851968138989,16.169414378393462,-18.879598274611066,-4.112617472963982,0.501249165059331,-9.616360213507376,-1.2135965739557217,-3.269726454010779,-10.768735256211349,-23.19523747762044,17.618258158365887,-5.899665196736653,10.109640880206708,9.602589373704001,-4.670886638317781,-5.092150622878402,5.1098135680591525,-13.751447722350791,0.05603923364048811,-5.7149164023086145,-2.3872889416104637
32.75902528733311,-60.13724496319529,-6.897291057277627,30.61718529008174,4.196809595946466,-10.77320808549326,-8.334902008002636,7.920747374059903,-17.01824006441942,10.399731994976946,-6.608556087653175,11.749199808300615,4.190115894642236,3.610225426786364,-15.79824296978034,-2.9745678347848075,0.814738252952977,-12.687317296045707,-1.826065979457893,3.1721233765834858,-0.7671219187294609,-0.4245515286444595,9.55410069700303,-21.566775814443844,-1.2531105331530008,0.49939729702959434,-9.52433891494091,-5.3991836734476975,0.07204444633406476,-4.4214451112902955,-4.958717061388467,16.07969034274986,-18.713864992837234,-4.071797088623558,0.4246506210268011,-9.695282886140406,-1.2213881850942074,-3.20598695453871,-10.95758060271728,-23.234102884928387,17.550111134847004,-5.87451171875,10.130642199972701,9.616356272082198,-4.587488200318129,-5.136960268061998,5.080584836733516,-13.962725517376297,-0.022894747333828236,-5.710753666388475,-2.663261853126009
33.09745596872746,-60.5580962551509,-7.59414658111131,30.773526399442527,4.327574492081354,-10.781508302515817,-8.283280352669474,7.912392965063788,-17.87930625559091,10.150710417396697,-6.644219539873876,11.61784954404159,4.192355032347645,3.7505108655765707,-16.87703942328716,-3.1344802470449835,0.8004628234088186,-13.959754525131965,-1.8356226670025675,3.1829621000347337,-1.1667153579406966,-0.4571747065124761,9.29288396342505,-23.068305960717662,-1.1665844304297546,0.38804700336753145,-10.88157548308868,-5.526423804186446,0.3311386924432585,-4.792476196022357,-4.8578707711246585,15.99021047384574,-20.096004488130344,-4.058748976751432,0.5421457856629389,-10.649205161851807,-1.2096373322877119,-3.1732970440969726,-10.867060696312778,-23.21481704711914,17.611273447672527,-6.057133674621582,10.085265038651942,9.37763516715053,-5.11716803612552,-5.037674288657148,5.104248899024432,-12.619333843179186,0.02648300922950264,-5.869467111625721,-1.4456345626137717
33.311932982936945,-60.780522800914355,-7.631027957292088,30.81763717518862,4.304481180573579,-10.913763917924518,-8.354625098989777,7.912132273085924,-17.94655598272001,10.180268320617172,-6.678171085578878,10.80739196602921,4.144451826505638,3.4625098215924464,-17.70225909591971,-3.1494702651171504,0.8593528974649928,-14.528263892625981,-1.8518244286316154,3.145492705068518,-1.7549443118819597,-0.32377972351727885,9.381373072954123,-23.353429869439612,-1.215379090905261,0.31989243989656685,-11.12977335424978,-5.480223145473336,0.28585852896553826,-4.745721254719096,-4.892864267526352,15.988552084304297,-19.904764951892627,-4.00813023806215,0.6144469973126586,-10.7373070143843,-1.4168037480755693,-3.290640474666415,-11.31814339513665,-23.11328379313151,17.58550262451172,-5.987265268961589,10.19666563856306,9.041346361102379,-3.9580331389783403,-4.973763057315488,5.003516921123182,-13.298956582562502,-0.0652270261624615,-5.762690917766357,-0.9990387132270492
33.51889756914016,-61.02975524428393,-7.909906422250184,30.977954810991122,4.05353253474771,-11.071244092633101,-8.516187900189413,8.00676251423843,-17.382687495289233,10.305797299819119,-6.652887039481762,11.447783347232933,4.109760021618272,3.4386770965531315,-17.07521128751422,-3.0371647771204344,0.7771424185403039,-14.585255951275249,-1.8144797037537668,3.1570824715426204,-1.0549492790375583,-0.39642984215613075,9.757593237985493,-22.223697395692614,-1.3198075506076583,0.4279787934971657,-9.90192340329776,-5.485567241031011,0.1478407098563761,-4.6750869505353965,-4.908229905412003,16.57906785945609,-19.332617459075912,-4.044217749199067,0.7232565841392796,-9.931304373101613,-1.190096705322729,-3.2425045305503395,-10.772651786843477,-23.37799835205078,17.689757029215496,-5.981597264607747,10.169702756027691,9.78663413598515,-4.7489933656153465,-5.048390351702361,5.228279421405563,-12.642512370648774,0.08865399254791621,-5.683646621941723,-1.3629524956409795
33.32940470122504,-60.8770692090143,-7.577756023434816,30.945084173671066,3.9309660070928136,-11.12450711325942,-8.516810558173013,7.986052989598055,-17.348509632685957,10.393385452750444,-6.6599282617882025,11.843921542691604,4.177426221853769,3.579755690015157,-16.257590729113442,-2.998893541932142,0.7960671499926587,-14.208494366394747,-1.7875290181621402,3.110050066324696,-1.582699455511935,-0.37149067120919854,9.767757563889292,-20.820849731606064,-1.3111090184547474,0.4580120790941427,-9.68561717720761,-5.448763088233996,0.08793618411959574,-4.861350603000924,-4.9372072505599816,16.134130146178695,-17.51298648561578,-4.085360760738095,0.6062732812870405,-9.775060490012448,-1.287172882013591,-3.2685542337936098,-11.94825723384116,-23.36623381689006,17.645695997553773,-5.924105959911363,10.237259588370597,9.317643615151905,-3.470343551002101,-5.041777953776225,5.257860786244809,-12.790994434059323,-0.010700572060487142,-5.686834728065871,-2.7709974484593656
33.43341963157266,-61.24111953537044,-7.023127226294257,31.156874830849603,4.13612094772999,-11.06779246089144,-8.579652403854732,8.074567670428157,-16.609593020089505,10.581750088852127,-6.736101692729072,12.281637654579614,4.174140394864793,3.439915138798497,-16.236673762915192,-3.0253001888214346,0.8261348518344742,-14.525007141968535,-1.8216962607332867,3.1611330827047,-1.6270458792947695,-0.41628194155832815,9.794860520608255,-20.83521406681056,-1.3229483579911097,0.4824097655666786,-8.95850820578311,-5.454420529966915,0.07853015939324436,-4.584012482427917,-5.011254922026198,16.4938258789419,-17.624768918981264,-4.07817135282174,0.5179214496535786,-9.17466585712823,-1.2549247649904731,-3.21007708484585,-11.227266421584646,-23.62871551513672,17.830271402994793,-5.9710642496744795,10.33226755266737,9.886627271330262,-3.3222425120613064,-5.159400258817315,5.288594906285723,-13.646004722243672,-0.07005410438021803,-5.739535589029035,-3.1828180879501375
33.38626371251846,-61.88762091201584,-6.131024310342973,31.531108168912652,4.267236024433939,-11.144205254429698,-8.61424138071593,8.146782727164323,-16.71372520082839,10.803514392146004,-6.915686402237427,13.26582476537863,4.201309741124486,3.5096594765892295,-15.360302502005155,-2.977165256967887,0.8474367037094533,-13.071622274365069,-1.8516921579102013,3.1461472270122024,-0.8413255175738507,-0.5349937551734699,9.918668197782727,-19.76202862506725,-1.3361561285982113,0.5641288096193958,-8.038962535160083,-5.495880539906639,0.045728109104687616,-4.161758407523057,-5.10010568424082,16.930544111436514,-17.038397482568033,-4.249532646418604,0.40669805960046146,-8.676195873323392,-1.2556017395125814,-3.262176545390622,-10.794014900304873,-23.90648905436198,17.972413380940754,-6.065849622090657,10.575955581550206,10.295931098925436,-3.0646393463233736,-5.219877527232771,5.2177775719953114,-13.330148976049044,-0.04927946982362686,-5.815375813757342,-3.6687497638147835
33.49223255255785,-61.5868582583376,-7.129069921097153,31.265692478152456,3.994946519731282,-11.274461734952139,-8.548217086520722,8.079012578936446,-16.65016494135151,10.636039783014665,-6.909468465892211,12.352733617636465,4.068709156969057,3.4649102172201656,-15.419369944386084,-2.965709130836256,0.762077512224224,-13.004850946908297,-1.9555231394899273,2.9884191048055193,-0.7529666003560895,-0.5207679927447407,9.961709664237276,-20.175169614390608,-1.264838822005406,0.5292906202008149,-8.170368014895045,-5.455404899670056,0.09722532202016299,-4.189280081146582,-5.159355233248266,16.91437895784994,-17.17693655693164,-4.154481246429233,0.3839393570518363,-8.664260422872273,-1.2935791915921964,-3.318432860784601,-10.720399284177782,-23.711800893147785,17.803937276204426,-5.92427412668864,10.513917124194508,10.286663929346124,-2.790248801729191,-5.179879587929294,5.081702346668237,-12.662375407389684,-0.0815921297176363,-5.743816804697339,-3.2916523317359494
33.120442520042346,-61.139352258178235,-6.75034366336948,31.182555656752356,4.385459426565891,-10.9489247260561,-8.455721460320175,8.015374733722425,-17.693863525600634,10.554276591056102,-6.888724428713975,12.109071720391398,4.143676328608191,3.5134531729579326,-15.634564925487465,-2.9339457036959398,0.8501765077425767,-12.792352704580397,-1.9002120274323608,3.0461602042960583,-0.8881697604365434,-0.5185254365672838,9.69821907735117,-20.504048939309115,-1.3242174899424708,0.5470808224115159,-7.995278203770245,-5.4469493883891404,0.12818845924253905,-3.946862800980829,-5.089917389126158,16.68277162221412,-17.771669009336193,-4.120112416736025,0.4364367290007369,-9.033420120572186,-1.2701126689893965,-3.2499819922303756,-10.454624158923812,-23.485069274902344,17.742570241292317,-5.948144912719727,10.337787928381927,10.01979626932851,-3.50063113598561,-5.166896245295859,5.04150255592256,-13.150379026795571,-0.008113513345944429,-5.701042433471888,-2.694331691433123
33.089082144277796,-61.037479826300874,-6.899687542661897,31.049628196183267,4.1655532323258475,-11.091146537088804,-8.416922781416428,7.973484413434265,-17.92494700424446,10.560510497970565,-6.82336457543587,12.07103344424734,4.12521854841236,3.6917891287199502,-16.14604052039459,-2.9679143215399173,0.8290361255929751,-13.40510011028772,-1.891510717975775,3.0339362461606716,-0.6986886085257126,-0.4632644727489106,9.763094106887765,-21.03195020903311,-1.2911557631829476,0.5390514277340922,-8.81318925682794,-5.435181137304647,0.09009209764607269,-4.1673299583871435,-5.066284120754526,16.70160630124347,-18.052770424803118,-4.1740700355861,0.4074886818055546,-9.958983402535116,-1.3041139041702143,-3.2819497254443726,-10.99122764848584,-23.49282299722238,17.713177781886206,-5.901709802810884,10.375776969308621,10.173998508701596,-3.350718810844261,-5.200526668670396,5.113947441960475,-13.038472911589215,-0.06919942801800737,-5.7166440598154535,-3.3088177537171615
37.39180444730775,-68.72987413448067,-12.08507805604873,33.90510460572441,7.53431012466498,-11.216624345281815,-10.375836175380863,8.897863921822443,-6.697189670127934,11.228949518253708,-7.172379544733798,10.785876016894894,5.666356815108664,7.171050262403267,-54.98803916983575,-2.8564853761889086,0.922588449015436,-96.84052082729526,-0.8926209194979989,3.007945575104674,-51.52419782456378,-0.27961658002167034,12.270263353900484,-65.71339571784792,-1.4931975319770672,1.3794508306963877,-108.65613214955052,-10.514798519928503,2.451300515355504,-58.25601622215148,-4.990121458725121,17.90081361689564,-69.73304844395376,-5.259764626392789,2.4940220494336547,-111.34930621965101,-4.598252446652981,-1.1374486025502384,-63.05059571350375,-25.716798146565754,19.604935963948567,-5.985395431518555,9.176615204731723,4.371858471337929,-63.74906923242108,-7.504137986067248,8.579082424974551,-106.19356592285816,-1.7615886774742167,-5.32549453512086,-54.83837523952806
34.12467225513783,-63.355911510885846,-7.822959682701299,32.330726766226036,8.657150900708627,-8.95768464319129,-9.645913301861299,8.586225932884139,-4.583456878835812,10.427278400340883,-7.008665021776738,10.52573377515935,5.292638939885289,6.091370044503229,-53.74263941716631,-2.7119214078280116,0.4870648564621447,-96.83548232423551,-0.9134892226741981,2.6138023902224967,-55.2397497146093,-0.09586748649320213,11.891846389156854,-60.29973763329468,-1.4086852595302854,0.5702802314352634,-102.77641398217861,-9.62052236034035,2.294774530490183,-56.69722006299713,-4.933016975604639,17.300694189784483,-63.1085614084063,-5.129116437161285,1.8391541269785934,-104.21637753917132,-4.118990672057682,-1.3304058250246864,-60.62105083752311,-23.838602701822918,18.490702311197918,-5.805629412333171,8.65722147982771,4.735909361645331,-57.064850848060225,-7.096169514773685,8.180938913699398,-99.62854639867031,-1.879860497310472,-4.962352220331863,-53.19009948894662
33.75402166664858,-63.263385337371254,-5.858495095769608,32.29964200844463,10.267546499442508,-8.189771880310394,-9.499526781564965,8.429169576397186,-3.0195860366660754,10.900058637448227,-7.122420071288801,10.768716599812178,5.3017384385797115,6.11575344408005,-54.90576236951949,-2.8538477036010366,0.7363761919425859,-100.20290873384958,-0.911805182793027,2.645637923927587,-59.78461516501496,-0.012704830704926848,12.106408264894077,-59.671271717103195,-1.248638469405506,0.5959754064694727,-103.69766613764877,-9.731324290915007,2.6522841379333397,-58.723470942130774,-4.793054265486695,17.31634914851446,-62.12115516204175,-5.3018140304451995,1.844169765111274,-104.53785335379375,-4.174482419899957,-1.2460407381155019,-61.518400672589244,-24.100148518880207,18.483816782633465,-6.093123118082683,8.565582877215052,4.8781314520018935,-56.021218505193424,-7.375354273520649,8.014338534804844,-100.57865365738229,-1.9354772119423032,-4.586584144966886,-55.1700669412617
34.510627790787474,-64.41555029875391,-5.081972597663746,33.18535444073628,12.840058152071032,-7.497149679856783,-10.072862771021311,8.543679386428929,-0.14244768534919172,11.223978533887697,-7.384024693801145,12.424326287007347,5.143740911879321,5.132623925763139,-58.32780067877604,-3.120803378164029,0.9588654210612707,-105.36467312511148,-0.7128113355328901,2.0945895827397716,-66.97200862663783,-0.3886363037185894,11.615129414479071,-63.09625947393232,-1.5438908393251876,0.9548126535485114,-108.88626064980672,-10.528962196072941,3.355322249908417,-63.89917365440965,-5.096579976646336,16.77516189529677,-65.2434736283995,-5.031431608376996,2.187023105330209,-109.82696519847337,-4.525052322535156,-1.0229718969607136,-66.15318307207141,-24.788311004638672,18.573895772298176,-6.270654042561849,8.726940273411437,3.2145731209811395,-61.08254158735701,-7.488911136354762,8.513619022697446,-110.51126639926564,-2.2666844437009837,-4.414432169986997,-62.536046960072575
33.21667945075115,-61.57323484605221,-6.320077480566773,31.619658461223704,11.14334893151315,-7.577380906668651,-9.670241971686545,8.217522623847561,-1.44401472438075,10.370250592621794,-7.001142688958976,8.961655149752211,5.102531153124688,5.241312064378521,-54.3384160892094,-2.940028157718212,0.7457600122782885,-99.71477172181885,-0.7256853269868296,2.251722190881032,-62.0482392259401,-0.2529998795200999,11.209799151918745,-60.262247357760515,-1.424678976863745,0.7531506460710903,-103.29360154108947,-9.780600183664982,2.9951671484693443,-60.61713033603622,-4.827285699399851,16.190676744566606,-62.91946066270839,-5.054969813105582,2.0088038428386175,-105.16824008385605,-4.282521888846005,-0.9631079399672379,-63.06736798030308,-23.576242647834246,17.783174820261156,-5.940789749412548,8.345825113651134,3.2433593580804256,-58.72403163021165,-6.981288289618124,8.103223158134854,-103.21268943816733,-2.1017109106146568,-4.548917901391349,-58.765763348774335
33.71827214730883,-62.656470983111284,-6.4192966354359635,32.385584312273465,13.551810045720956,-6.584659308790736,-9.88225737903286,8.212735491088099,-1.1162680112316155,10.591714704056459,-7.103658158535094,7.803475616892265,4.914818617183927,5.326688655082299,-59.05462038432376,-2.98513947507607,0.6196258784282359,-104.3244020318984,-0.8207899398112551,2.049592460711478,-68.48422193764559,-0.42665374229682235,10.962201108400699,-67.06442435956194,-1.552683839965291,1.1046395924240608,-114.16459388360425,-10.700239323781135,3.6202141147836264,-67.7193155695428,-5.077428279822875,15.605795478355994,-69.08399301968322,-5.114300768606419,2.2894615385401216,-113.84868172255311,-4.801923727176821,-0.6403457870344932,-68.21281389814884,-23.987728550162217,17.93480109920245,-5.8097080665848315,7.974605431572917,1.5697669138255532,-64.94958517366145,-7.348228724104271,8.618490012625276,-111.60075394669677,-2.177368387626536,-4.512870644614959,-64.6083260914426
34.06410101854969,-62.866525833843156,-7.123200953180369,32.396531270095686,12.873169117124801,-6.8277739286479076,-9.836074820640414,8.322268280685789,-2.6125026282741852,10.335877901588038,-6.912418762130983,7.013095795090673,5.180394256129903,4.344554981015647,-59.594773115761264,-2.9664792156458026,0.6660592053610802,-106.17903343518184,-0.7511392908159694,1.9798131740886458,-68.73754902145926,-0.5283648930752715,10.503299766444039,-64.82527023317826,-1.6065777758765885,0.7407074902437977,-108.54756852442472,-10.290524049899552,3.3343821715488424,-65.28011657238852,-5.108259490077806,15.81176155882408,-67.7925896778582,-5.258020263246812,2.094381316558923,-111.7163932564999,-4.582979580718317,-0.7702307063962291,-68.06621265525389,-23.931421546454917,17.97541399566385,-5.861896104373943,8.352111917163453,2.047748306943525,-63.083918854558114,-7.193169378111835,8.425153926335067,-108.90290900758129,-2.240784768881437,-4.412333678884668,-63.637922408843224
34.13187787071258,-62.64143853195814,-7.975470293015956,32.30197798489786,12.0963822137621,-7.227668237289808,-9.663503769649589,8.25245446311453,-4.225198773434847,10.297844950401796,-6.993452131992587,5.602208152439992,4.958057026674574,4.533174952981816,-57.42292234738209,-2.946098227017959,0.6264588219306189,-100.84094568508492,-0.9080120047214321,2.1476652032672034,-64.69328947891212,-0.4389011762015835,10.420465206437063,-64.61374690427907,-1.5561451579993772,0.8705907694620162,-107.83253268180484,-10.260844411129886,3.3572363194595876,-64.3953257304532,-5.139416491245761,15.432195162469213,-67.94442717018798,-5.227689097734585,2.0970333648454265,-110.38119489426701,-4.576224635033396,-0.7147158227377318,-66.85908796594369,-23.851993560791016,17.84156036376953,-5.809794108072917,8.134147436014846,1.841163617162504,-63.936652364632344,-7.245518506854535,8.38056593918216,-107.81878834430712,-2.2080752916589113,-4.571247852825624,-62.766665828576215
34.12662248246447,-62.79859650904734,-7.996127653088476,32.43031776597234,12.28553842088855,-7.1755800997645265,-9.855449929503989,8.198833822130677,-4.161796756412764,10.017510203082123,-6.736211856844245,4.608946442134273,5.122936174514073,4.389407208525641,-56.44259972125847,-2.903037158426418,0.7021386255054303,-100.8742296738961,-0.7669378874887878,2.005115557287414,-65.24555293879168,-0.4314539642523518,10.471124549537043,-65.7972643723909,-1.6921209825290378,0.7260707912746168,-110.16925593534592,-10.386920123578276,3.5000465456173493,-65.49703823035006,-5.261685857273227,15.096536656932885,-68.69216838615665,-5.36562146366569,2.059495616792279,-112.07644540367905,-4.613631880895115,-0.6736284983973206,-67.54288683552063,-23.86546579996745,17.82579803466797,-5.8113663991292315,8.13372309053234,1.1138656693899112,-65.51531247290377,-7.219250063300575,8.588283323030938,-110.4706946351218,-2.1748040936632114,-4.510132604733347,-63.80729057505497
34.76061809796676,-63.73601704303198,-8.224147553713582,32.806884781485984,12.635875589260081,-7.146594591208405,-10.060790224423252,8.403698560250794,-3.5824139912483015,10.353401430630269,-7.024145953467617,4.883035811083201,4.968458555942699,4.601244523896478,-57.5438660243965,-2.9111504076678485,0.6895262134601672,-103.04340337503193,-0.980768507656149,2.0956488344659285,-66.68332163257723,-0.4685325138684588,10.508923503058131,-66.6059204239612,-1.6571990772244558,0.7874492592555237,-113.03460372374134,-10.517100925920221,3.465440976541514,-66.99117882356136,-5.300458127929301,15.870203702080799,-68.80732984510327,-5.325241907172336,2.016709526815929,-114.016585747207,-4.771576016963557,-0.6898293845564977,-68.68863610811519,-24.28085454305013,18.138262430826824,-5.681494077046712,8.339390931221363,1.777686779300787,-63.55409601890659,-7.265534882218996,8.52832986846792,-110.08221783248165,-2.1899969091209175,-4.781037169309997,-63.44121513089194
34.080067516996834,-62.694082329922885,-7.6283903508071935,32.40955666829117,12.69724299850399,-6.924330958968909,-9.843294855023979,8.298834805661519,-2.96361174518741,10.158704511014482,-6.900139042208964,5.973649400561153,5.028597369534778,4.292868572672437,-56.9405646417693,-2.8195886290794605,0.6432348760659152,-102.55220105676422,-0.8102896824861889,2.0295172396958425,-66.66916965275763,-0.38179114080912596,10.408454030416546,-65.43072048882084,-1.6130078919442763,0.7358008237164689,-111.62737148663585,-10.32057065652183,3.5230760816432536,-66.35236787690481,-5.146752506910576,15.419964873410004,-67.59035707280866,-5.259694772721255,2.039083493831404,-112.3591858698946,-4.649178076967985,-0.6688515378678743,-67.88231097891014,-23.913297017415363,17.8242925008138,-5.793572107950847,8.277545481502598,1.5892263391242938,-63.18854482396002,-7.152840525165768,8.501901228229292,-109.9061200293711,-2.234930888704391,-4.516643132336696,-63.4964654071205
33.90285194082496,-62.05275542562601,-8.392125168312075,32.058065375973456,11.857223136646894,-7.142909297591956,-9.729329502647676,8.218425437782287,-4.425251785267163,9.849975975044432,-6.734610744784647,3.769264994153479,5.0131799526443155,4.333029705484937,-54.396039495284924,-2.7397592541303233,0.6025376193418756,-98.47156344283194,-0.8912085508689608,2.003165867294923,-64.0977000279204,-0.3516156536087069,10.190455525777875,-64.22706143120365,-1.6423052437814345,0.6268626065533829,-110.05587388735199,-10.199717232449565,3.4674722595709064,-65.38470125092825,-5.151954482415133,15.278747323768078,-66.06544455653261,-5.382058181127829,1.9330884745544672,-109.79806933343627,-4.565094837730517,-0.8318896724427645,-66.35978900625389,-23.595186869303387,17.669695536295574,-5.763744354248047,8.227934707780266,1.8533431031928973,-61.232017113999085,-7.057521095132402,8.268602608641077,-106.30717695482683,-2.108299787731897,-4.492408996391057,-61.410629632380925
34.10749210896518,-62.24619973937246,-8.75848103755905,32.054582669790086,12.010787100011987,-7.06192178325972,-9.697614055394181,8.233019000479569,-4.779267795950209,9.969689108084943,-6.848357859096763,3.590738829829707,4.915034650598659,4.525784097185974,-54.448105281160245,-2.7960472433005634,0.6004021462741459,-97.75840688511533,-1.024998950645559,2.119271932387871,-63.53919422072196,-0.3857441751015265,10.204997922277721,-64.77736038855674,-1.6384328891176139,0.6705130570341084,-110.85646671957356,-10.162491190700196,3.4199099416994563,-65.71283604362038,-5.116979552156298,15.452572001478401,-66.62911511752061,-5.274548607008441,1.9463633171619203,-110.55581456442447,-4.5558726475473135,-0.7374722494453202,-66.67753557796125,-23.65076955159505,17.71222432454427,-5.69809627532959,8.223297547979302,2.0426544266119797,-61.02454785273189,-7.046406338622685,8.271729527263975,-106.19922314272878,-2.181439968866677,-4.646421229663236,-61.27898446374473
34.31740249044452,-62.095636884424216,-9.836971985689273,31.92150881561334,11.391014972192545,-7.3685718142034915,-9.528002892500808,8.160252547482168,-6.503822507103863,9.786432253088078,-6.720593084581808,1.6396444091688533,4.8692606026224245,4.580017522332483,-52.36435170183169,-2.8512827202513207,0.5949034917431072,-93.32838962188129,-1.0165903300256727,2.1908113730757015,-60.01970418092369,-0.433562210127842,10.26771701941931,-64.6320729100534,-1.6377770343603277,0.628643464255073,-109.74105289028068,-10.194084899299822,3.372133193611291,-64.7733018825428,-5.165384117606184,15.199047570515136,-67.23134315614915,-5.239296398308108,1.8957869461715233,-110.25522331254244,-4.524029164364774,-0.7982164413132106,-65.98679013133159,-23.54534657796224,17.648840586344402,-5.717233339945476,8.154752397240498,1.6150819374262857,-62.94057623266948,-7.074041337115623,8.405857433104142,-106.84887525603239,-2.1984079059682724,-4.596179407075219,-61.32121930489409
34.59015278548625,-62.81870598236052,-9.668484342896306,32.51084693279992,11.534013329277963,-7.482282455845165,-9.662284893866962,8.085951915871513,-6.5207692955773995,9.915687863525578,-6.665875776308437,2.0089317065710417,4.8763530155939145,4.765391675137097,-52.62918555716856,-2.8347330840442493,0.6011575826807071,-93.71272491087576,-0.9998583818367672,2.1411469998960944,-60.445590015175064,-0.446975504152592,10.493344154083937,-65.19130781850369,-1.655964697591414,0.6950358737522091,-110.70897859350669,-10.337829533916695,3.5094350521808693,-65.35736033522839,-5.332711269494027,15.262192543241,-68.30139077030876,-5.373450161974745,1.9726568600914158,-111.54726277634484,-4.628260628779878,-0.7308244164131391,-66.7321500887209,-23.797130584716797,17.851236979166668,-5.842382431030273,7.960527995338164,1.5000003150648291,-65.26859366886342,-7.294918037195394,8.486071947995487,-109.95197562265184,-2.138316965923211,-4.603627036717551,-63.14039312984403
33.91572456923697,-62.398523656292376,-7.9321435721686795,32.26706346810853,12.256729595478012,-7.094887416487709,-9.736663982894678,8.20444960290151,-4.169743178492754,9.97535563490314,-6.730764027108953,4.6756813028837065,5.009173547469102,4.244839742883883,-55.928815150026225,-2.842266113161701,0.6004629166949531,-100.46480574312848,-0.9259323182154443,2.007589954928504,-65.18700697532826,-0.5181280083255606,10.289850419806923,-64.81430606032596,-1.623921640017219,0.702634430823759,-108.66327107992144,-10.192040477832778,3.5225417614815817,-64.82046482682911,-5.24288294472325,15.133770722192244,-67.444028276033,-5.373464401698281,2.047503535702933,-110.89604257591714,-4.677988641211525,-0.7657961315782092,-67.40823841055429,-23.732289632161457,17.698170979817707,-5.809256871541341,8.222742144580872,1.4853681347491772,-64.38754066121145,-7.220232827619238,8.369971491296402,-109.53459037815402,-2.227609600404866,-4.487648141612061,-63.65867160082874
34.67684845829131,-63.164745261533405,-8.998288631369277,32.66495034129529,12.087426299134272,-7.321447034003988,-9.740219012793538,8.179271139962017,-5.222916771074505,10.073677245717066,-6.753600887332162,3.54992645531013,4.98411621226423,4.521154645844629,-55.43069909676267,-2.845901987652407,0.6460896368106871,-99.24369592916219,-0.8733107978199076,2.0723932943897583,-64.13024286576399,-0.38423530015464546,10.536780331890961,-65.6715606315292,-1.619223260056031,0.6670302501427704,-111.02990259226296,-10.364048850714061,3.5337806896471817,-65.73899763058246,-5.271622825183715,15.47433450265595,-68.95397211073676,-5.3709602347568834,2.022116918650322,-113.57174494962617,-4.674135667947375,-0.6733994606974215,-68.22409328913257,-24.02933629353841,17.971363067626953,-5.872774124145508,8.150897734284376,1.4659190242771392,-65.97678273184373,-7.288597974372944,8.572792828065273,-112.4157738851776,-2.273350380719665,-4.512887836250492,-64.5406247147625
34.06220402502252,-62.26028802465911,-8.51942788420243,32.19927583088093,12.339403833078949,-6.986331410794175,-9.715888775904581,8.075764669429494,-4.360696013505901,9.993747938428557,-6.722722895795531,4.503815954691706,4.8995138984757824,4.308981812503888,-55.270875354887416,-2.826078971195693,0.5709176538587458,-98.94816293039548,-0.9836255486904545,2.0128532013279417,-64.19303707363831,-0.4969937771499424,10.288640076291797,-65.15392206810127,-1.6723175008865898,0.7245306607481292,-109.93830024585498,-10.238435000032455,3.536353357960302,-65.23082292220425,-5.21853515917241,15.2469572826769,-67.86856388845223,-5.271521959639556,1.9715493524713918,-111.94890007645427,-4.685885308774835,-0.6809180385668302,-67.48521658666435,-23.61395009358724,17.65240987141927,-5.783546447753906,8.037590292298725,1.417803053827015,-64.84844954313986,-7.20938676418287,8.492139144527902,-111.14950343118335,-2.253546764876274,-4.466242341511967,-63.91868404514321
33.72280271267681,-61.83346755857258,-7.549929877190788,32.03114407342724,12.45340511781827,-6.891723946136967,-9.590703573041663,8.234318349631964,-3.342778672117591,9.973538475488326,-6.724962734636084,6.216668476118119,5.1051443558892435,3.717396329844925,-57.605068259503064,-2.796525345244256,0.6259281764170673,-102.83187478010014,-0.7734086339667253,1.9685351631132164,-66.5296144133505,-0.4441478952638094,10.284096370416163,-64.2233999474047,-1.6274575971049732,0.5058469769123858,-107.47646148393237,-10.049556734171805,3.3429945738945173,-64.2491371916931,-5.087485953816274,15.193489058419573,-66.72592223203945,-5.237360884700787,1.9250730265325942,-109.91864322873391,-4.493310642207117,-0.8012254616270701,-67.22929506887417,-23.68092091878255,17.55291239420573,-5.866898854573567,8.334165796059134,1.4205385812064548,-63.08526945998631,-6.986865424473386,8.367277482373186,-108.33156550464298,-2.3743402103584654,-4.309502085405735,-62.81808160122372
33.57853044750484,-61.70913361855699,-7.295147421859585,31.95253084054742,13.39063244650062,-6.452862248866375,-9.670801156569564,8.263584844901255,-2.7711989049231653,10.078760867016255,-6.836632808606345,6.784496571895368,5.077329094166632,3.746781912026935,-58.11563049159658,-2.8689330324976994,0.546682133841882,-103.05357194010763,-0.8902813207393723,1.9987488941437415,-67.16584604548216,-0.4907910668960098,10.350547555036831,-64.29584272792742,-1.6991501963571498,0.5601072420882838,-106.67228700791408,-9.978725737981769,3.24082841823156,-64.06451190658723,-5.059829272557848,15.312890387373734,-66.60434503244157,-5.251321982120249,1.8673316988063176,-109.48941728703646,-4.488985928459368,-0.8062844355299036,-66.84586508935733,-23.553751627604168,17.566378275553387,-5.799943606058757,8.346961528989768,1.5057583491795932,-62.66170293362436,-6.940349517197762,8.343181609335598,-107.86637235381403,-2.3489068042554577,-4.267538526418204,-62.872189269600334
35.401489372946564,-64.6478112110948,-8.724670442147938,33.52422895618143,13.81006762312633,-6.873621459120165,-10.166179412741975,8.492202329765687,-3.873406365591542,10.419210201828607,-6.921406874469362,5.007773676814442,5.272510319838388,4.057165992162578,-59.6666344761261,-3.016826095669607,0.6928219504321386,-105.82332713097064,-1.0385612929812569,2.2394080942286063,-69.26305635832601,-0.47314898266817823,10.58137002467422,-67.18872623892712,-1.9313934175019518,0.6293675151126846,-110.80488341889253,-10.475367257023755,3.4572439707421196,-66.55807144702783,-5.282907374962948,16.063981147431402,-69.34065547880152,-5.511259627943713,1.976158843576363,-113.78734365414341,-4.64510862497074,-0.6846531443177355,-69.46615163127903,-24.424381256103516,18.334171295166016,-5.916974385579427,8.487293661969124,1.7077087209014674,-64.7056801252457,-7.348680108832517,8.656745069126154,-111.11217499490225,-2.381425143159332,-4.509071499519103,-65.02439811913258
30.19804395122969,-60.20984726766969,-0.47468336455771754,29.638099139677774,-0.16887112051798833,-13.377977247524099,-8.874196396803258,7.5663129390244395,-12.18776290950746,9.828619038411075,-6.5728779369600305,2.202719217282327,3.576168502782696,3.096539868065747,-3.5536994540575098,-3.166138578622583,0.7581030211525875,-15.847191278744313,-1.805230209116072,3.236723340669961,-12.697986659957749,-0.7572080903612752,8.187599681939828,-7.71251060899959,-1.446059107692084,0.5910297232819823,-7.524621740407594,-5.47390512042315,0.23970693810623378,-8.362412709976569,-5.246864366606334,16.167290679032273,-4.5949679426144145,-4.047346603264638,0.960365002588269,-12.761955537957016,-1.4710571662542404,-2.983251097525487,-13.620726784649158,-23.20353077807266,17.00855932769261,-5.468786593696318,10.62973410954048,13.45791121546044,4.343026120787513,-5.789865202936054,5.278979438738493,-27.422026480763368,-0.628571869615372,-5.204181530112396,-15.934793614535039
31.203238129763246,-60.6675907100462,-1.8230896515805934,30.65409033486071,1.4504619411739377,-12.57054495093252,-8.706806200182703,8.288866386988152,-12.335539757068636,10.491162131292413,-6.900420501294097,9.482741915769374,3.6792540589662557,2.9845075334338294,-6.877672095480129,-2.9204357205665996,0.6266651910921671,-14.350602673090416,-1.548061202101185,3.056022518623209,-8.835771531857018,-0.4482829087608466,8.842417026583332,-10.21702824164379,-1.1851655492628228,0.7673194807573495,-7.263270018610261,-5.657114803847755,-0.06289614032043957,-7.302414131139521,-5.333161831062203,16.229268252461704,-8.831551282588514,-4.179099930671907,0.5637798081884893,-11.356903127564072,-1.1617260815565695,-3.3029164840833634,-11.161774035977603,-23.377399300567447,17.719749341296524,-5.888375564051651,11.14956503661655,13.286564390757357,6.019813895675052,-5.441155827185294,5.141378807882747,-18.707701601800995,-0.38473037011881156,-5.673544228754544,-10.956773569940568
30.85250247344979,-58.95684923288827,-3.364872411520684,29.8621938895634,2.0636442999795164,-11.780501044248538,-8.531990804637458,7.810210207140582,-11.952484604990198,9.934989934815286,-6.630742255842146,7.563743181078394,3.621174858147152,2.9199286652653416,-7.6609849286097,-2.819719626095696,0.8014113492903525,-12.799671288256645,-1.7451429442468844,2.8999644589532703,-6.257785464311472,-0.5202324945960313,8.313900705976929,-11.869476627728659,-1.3007525316659672,0.6034076934953384,-5.816690092815225,-5.542051668235589,0.1179088372391553,-5.4892033490421115,-5.008562680509822,16.166464083889405,-10.686981140322816,-4.13211172847832,0.35488087549022557,-9.642982717067829,-1.3086817664021921,-3.2683445999136858,-9.062364086826364,-22.770443467725173,17.24149391446441,-5.7979464197574755,10.23357769093259,13.404851465110488,1.860553680750204,-4.956794439051074,4.9488341315066675,-13.573813986380491,-0.13051158424698214,-5.544056053592702,-6.3058037251911765
31.042785240239763,-59.498934960853084,-3.3728428719609505,30.061354021803783,2.1847415052447996,-11.752734553600988,-8.719309723865404,8.027248394142644,-12.235591415411207,10.256652514161914,-6.629654041544247,11.379758922216297,3.9179338718380907,2.7977305430898007,-8.50297154735353,-2.893872158156114,0.8698669798941463,-11.425226167085514,-1.8299068669720757,3.034837645772539,-5.207378603190402,-0.7475807547776053,7.86249045041577,-11.963959379277478,-1.3178364522313908,0.29376932174617726,-5.704776983632701,-5.494852813087335,-0.11623224300855407,-5.422665338622317,-5.149677023317061,16.25886890199458,-11.196810381792845,-4.124068601301463,0.46818432975672275,-8.428039689691083,-1.3855347409765717,-3.388958607753326,-8.840219559905632,-22.879727681477863,17.323380788167317,-5.728967348734538,10.46379804836542,13.371021740615518,2.6328111910278214,-4.961929813971133,4.919691342299774,-13.03007059104769,-0.31462106017601427,-5.5158763870415255,-7.4390832099325195
31.68144243482298,-60.070708389121954,-3.5809636333550308,30.52398746628943,3.365077503701555,-11.397234175593033,-8.73077057190484,7.9913922788124125,-12.606888814419626,10.612455664072355,-6.736104004843688,14.26578281324703,3.7892670904388708,2.90955640464245,-7.774265910550208,-2.8840254303084776,0.9172467428638464,-11.157201133581372,-1.829576549131584,3.0428646221715474,-4.030976390283548,-0.6147652416445876,8.236177101442676,-11.746884528476189,-1.3446841917285635,0.4839862381465509,-6.428362830023791,-5.441584716591012,0.13184016406151758,-5.172487828245097,-5.102110933131356,16.42170431111398,-10.093638802252187,-4.0252424762264205,0.46607483961877233,-7.048120242726696,-1.2410306286531412,-3.3266381784944525,-8.937212033030477,-23.117758872837793,17.586743040916613,-5.8933786848790914,10.489362506883404,11.953288616781407,2.975835537224864,-4.918788881206445,4.839623535605116,-11.887230868756625,-0.16219701856944713,-5.50123617563671,-6.63423480763277
32.53528134654516,-61.20591696398869,-4.411306697672649,31.085134947580332,2.869574332134715,-11.885752833263178,-8.913897101821911,8.209487463161091,-11.920012642118138,10.877660896167384,-6.8740586009392715,15.398637410856848,3.879033857130088,2.8428262155131576,-9.226513721456948,-2.9163537592426967,0.9006500311392437,-10.077777879346057,-1.8306852266303872,3.07156495895163,-0.9689026812370622,-0.5949916492071952,8.368953125232716,-11.90165745242208,-1.347236664793944,0.5144529317923182,-6.260844400273729,-5.404199031908263,0.09582240841650154,-3.918149091170184,-5.16686794888352,17.105471421829616,-10.715174913360693,-4.0490993586191175,0.43340195341610244,-6.439888376562789,-1.1529926522035026,-3.338906874804246,-7.841278331800988,-23.5393549601237,17.886727650960285,-5.9576066335042315,10.643605733322131,12.789962792657642,2.8186367542327626,-4.883666630817427,4.8851176145400705,-9.617767357124206,-0.08461096698910808,-5.596202953779663,-5.632053508664177
33.177685137027225,-62.00623969695932,-5.022971563282002,31.564944286047332,3.5870352135620274,-11.69894797095471,-9.06653081366317,8.270163475223653,-11.503621570524595,11.073306935201224,-6.972127389327521,16.175025883867338,3.947572360077254,3.243135139686036,-9.791609859872404,-2.9719271179517244,0.908673454106105,-11.066647217655948,-1.8926876577575982,3.053098605471606,-0.3384447144215215,-0.5811136017503942,8.649170902713214,-12.67024235204852,-1.3529023622416727,0.48624622947759205,-6.595045768454639,-5.425013080196396,0.08175364758433204,-3.554638931107719,-5.313951078515401,16.924753562001968,-11.363237001809011,-4.0648290751078155,0.3789182535776106,-7.183352628998212,-1.2338759251871176,-3.4313403780306597,-8.70850175491807,-23.892563231315133,18.107405927691715,-6.000554493163669,10.752820972508536,11.807923792461622,0.7376917509349843,-4.960151431525246,4.971540027623261,-10.718465906824335,-0.1868445453672355,-5.708914952531592,-5.634910915066712
32.048484702336175,-60.07400234576295,-4.61736530712096,30.704577013010905,4.316708810203058,-10.934000896094107,-8.712368155507574,7.974279324230256,-11.74133642931802,10.70612982247693,-6.814214694263214,15.062758956884258,3.8553632811059075,3.15779317920058,-11.080391671038177,-2.84167609436483,0.8045845077243438,-12.784549753444557,-1.8514632905341013,2.9794196495058984,-1.129871039981657,-0.54595615879271,8.738240079748806,-14.039419004229416,-1.273507750358089,0.49738618556723785,-6.551912601567501,-5.2647622594289345,0.05150555661397858,-3.3460018345163314,-5.187244698829185,16.189154040719455,-12.075862677953603,-3.9546770514395053,0.39131254612633587,-7.427128803338004,-1.1978693915817027,-3.2963991792302387,-9.320177115081053,-23.09894408703641,17.550149390760595,-5.846445335421326,10.378004360730008,10.861635268198343,-0.343390464777499,-4.909808762864668,4.814636845118206,-11.345805079601831,-0.23379432568730318,-5.546657183598557,-5.215503093016621
31.847264768112932,-59.567060804067175,-4.893365195226436,30.411893265354617,4.171411979627453,-10.894216515954412,-8.633665188415213,7.937957763105943,-11.950051644276806,10.625803094862222,-6.74935395882551,15.064460610486021,3.8080902622625135,3.239732030795763,-10.399282040269584,-2.8912178096222845,0.8062767580067803,-11.493799609798792,-1.8792711425092377,2.8977278746415442,-0.519198037050833,-0.5213246059905287,8.759085413687863,-14.047873418297646,-1.2514052227430421,0.46690553343489477,-6.962636588423887,-5.267825897307671,0.08269489308125534,-3.2465767121107074,-5.136546065920222,15.943218766761328,-11.644670322456227,-3.932293043957386,0.3421918441418408,-7.397436987514752,-1.2348491182248056,-3.318229065002921,-9.233328871748268,-22.903368636883016,17.393969833096154,-5.712988534595496,10.374151181323706,10.714759348858628,0.4071451593888977,-4.8648705891197315,4.8444269458508735,-10.944728542649571,-0.18531621588179326,-5.47076353806425,-4.865678773547949
31.64304751794263,-59.40815134894731,-4.696358395329917,30.428688679738595,4.336329205989423,-10.759641814798465,-8.629642383432298,7.871988612039499,-11.892385976727008,10.609540125955599,-6.657380077913733,15.500031178622267,3.8112803961404675,3.553001503670464,-10.177066116753865,-2.8995085278707555,0.7960370483135412,-11.884199414597257,-1.8853273332890124,2.9073765285183746,-0.5968390254280928,-0.5756288333265811,8.866222002524932,-13.388235114047331,-1.2859440178152994,0.503339366600451,-6.921662359180967,-5.247417149635704,0.08374699702471418,-3.2380053291208775,-5.151313962974723,16.000355579072448,-11.572993013700222,-3.9563521382583158,0.32960796992826863,-7.251671246946786,-1.2428161452309963,-3.293809410971209,-9.27861109956776,-22.76264292302766,17.377583933439784,-5.733677163156138,10.28701517736292,10.354482706916313,0.7248959137170224,-4.8940562029988355,4.792268203008708,-11.61862117546648,-0.1965032057291849,-5.5210839034253185,-6.2608318641483995
32.30119032636651,-60.46058670791086,-5.092183355939189,30.791945132403857,3.8789259981063515,-11.12656117608015,-8.719973727980994,8.01805904778544,-11.574373492100781,10.72024767381661,-6.900310258101534,14.995944900331324,3.8264546141677265,3.3773615221629156,-10.778210796751987,-3.012242830061728,0.8411863558868505,-12.115379882576095,-1.9032790339397645,2.949759081413259,-0.1393435561294185,-0.6071075912893843,9.413836179214274,-14.28662283658345,-1.2791936030420235,0.45500943153273515,-6.94622162859757,-5.282321376454669,0.0845869468922537,-3.450050612274899,-5.134244033445362,16.988421439816772,-12.746138280326406,-3.9501701595418823,0.35732472285333466,-7.1201622971874245,-1.1806526591197897,-3.3157050060014552,-8.714159119779652,-23.14361317952474,17.576623280843098,-5.824733734130859,10.47719876694499,11.609301385151413,0.5809259453791363,-4.872718691664661,4.936210336479307,-10.236844861183963,-0.18653566026600607,-5.584882416734172,-4.461489999634554
33.27245498086625,-62.1085464715288,-5.886432478732448,31.685693336621583,4.453450733230378,-11.159634097513214,-8.906122919127538,8.185044806687609,-13.303764619641276,10.94513218151855,-6.94766842793818,15.070468671200763,3.8997153879181727,3.186908060148894,-12.826502471183781,-3.0661320853952794,0.8373156887739638,-13.11271818777577,-1.9879488624910893,2.991144024174117,-0.3345328465457236,-0.6212746986056082,9.28015530748223,-16.37505417137395,-1.2908036609978233,0.463357213847933,-7.3887287488128335,-5.468756798995545,0.11700928824679224,-3.719114374157625,-5.30534374951442,17.228451177394113,-13.989248068760773,-4.11232973392948,0.3577211870520493,-8.216904485474673,-1.3214051867819816,-3.474641902771648,-9.651045354489353,-23.7760466006134,18.090072516141657,-5.966581306394036,10.737668547039357,11.133231679204707,0.3227215082808052,-5.089669835939316,5.062355371569019,-11.495646592699217,-0.12445585431473477,-5.703440205414366,-4.582748335364829
32.830124360809535,-61.156348296169966,-5.789274072498863,31.197711677472896,4.289685504749079,-11.027125668237412,-8.732691158973264,8.014614205067755,-14.019017307464486,10.661696494038193,-6.896141355782633,14.14503649280926,3.812615982934019,3.0593097492986927,-12.741808360053874,-3.079801175517389,0.7294346832593331,-12.781351068146236,-1.9356635476668114,2.9209844882349123,-0.5237553237773428,-0.5063011060128422,8.954557974859783,-16.094443319391527,-1.3208858522945335,0.43146481403557146,-6.682026072733978,-5.2079683268710015,0.06452240684699823,-3.4695169262388768,-5.1080868192537885,17.288295894308273,-13.238060442960276,-3.981705783532156,0.39753848053458585,-7.661763358450412,-1.2136408712613953,-3.450527614874743,-9.232250487355673,-23.272587900416397,17.752349706418567,-5.83071608453587,10.58205921749048,11.35452381306577,1.6691531955347976,-4.922133243692236,5.017431051956799,-10.020006978506329,-0.12810040374118492,-5.605046400524827,-4.30405136758925
33.47515100202991,-62.28671706387275,-5.829744520361841,31.792878021535984,4.167708073777063,-11.324542760927288,-8.808464060882544,8.178076008120781,-14.134280917573799,10.938631281010982,-7.002576748477821,14.81637850710665,4.023066180152733,3.2056370063380513,-12.975460355438,-3.020306049869765,0.8492675754606648,-12.97790611619206,-1.9658322463319449,3.0034411516702373,-0.6295756812751709,-0.6593148795329765,9.24685075760476,-16.252427972062744,-1.3334932651727716,0.470016848354288,-6.914758853148354,-5.500244123849488,0.07469389133828204,-3.6434083446096803,-5.282094917685043,17.577345828616078,-13.399192218084096,-4.151299444937205,0.31010579085752527,-7.9444923845704905,-1.2736172250457123,-3.3710343735335306,-9.670118257432938,-23.90089635847409,18.02763594450594,-5.9749437090678805,10.792562203367583,11.44811612952775,1.208653274329016,-5.14132453736923,5.067313443012443,-10.517319739780342,-0.15119257519299292,-5.7629027514610724,-4.681704891862806
32.89963038864809,-62.13039401749154,-4.670696867290559,31.884913074779877,4.920566349165937,-10.976693731317672,-8.829393097970323,8.181115650457237,-13.331724206746822,10.949609059916055,-6.91319878495302,15.294034822140004,4.040495126908077,3.502495141558505,-12.453481743792247,-3.018889709352005,0.7971557175697552,-12.884320810667296,-1.9419040979699964,3.032376834005433,-0.7878416805140765,-0.5275935636993664,9.619880343678627,-16.716437422867212,-1.3181554718505433,0.5425931568674828,-8.311300434014921,-5.526859109674284,0.08870132698269384,-3.9767618570960437,-5.304896329608028,16.837192327196735,-14.233568005336375,-4.150915506241001,0.31386387033560026,-7.977961494513402,-1.1583740051063671,-3.3588956159511394,-9.616422241136192,-23.740386962890625,18.122233072916668,-5.986281394958496,10.674929937280892,11.281180336075122,-0.09447027167679471,-5.120536459963342,5.027675999885099,-12.057879387154472,-0.07568921725339152,-5.792064269063374,-4.374635067503546
32.3132678742269,-61.41210988695757,-4.080980469695614,31.52381065807597,5.090605703815946,-10.723503575922962,-8.862020814936066,8.100682270863828,-12.585047849211433,10.838950887563827,-6.888365303310917,16.051530674745575,3.975944993320015,3.4999440425991146,-12.63737536884841,-2.977033355401742,0.8372100343014113,-12.641804949283015,-1.979302202270592,2.997457486323899,-0.5751317726582988,-0.5894330231095487,9.198924127727729,-16.619370508948073,-1.1893842538591046,0.4568624125237087,-8.230325733739058,-5.444332328651723,0.18297435590210218,-3.61532263425852,-5.326821137056697,16.621475879598275,-14.141536336550372,-4.053989704030752,0.30539065244778324,-7.821171472365588,-1.2620725090529845,-3.4623560744593083,-9.271626104481573,-23.469528198242188,17.920567830403645,-5.904340744018555,10.568662978282907,11.26926353607257,-0.6093848331090129,-5.008739503943235,4.8463233410045214,-11.556718303726,-0.06657511090958891,-5.679352081902533,-4.407141021999185
32.33732771372778,-61.21213817024434,-4.046979972974127,31.33251252182021,5.316708273967724,-10.652488153650262,-8.712105839113038,8.139239812014395,-12.707779451957023,10.830182065546039,-6.935274035115729,15.740980568336816,3.9370054141354185,3.6582300954846674,-12.889431875024092,-2.9832111636731757,0.7904610577076195,-13.670877820167652,-1.8985529970209176,3.110612363023586,-1.1525588611993574,-0.5337669451795755,9.375390403914947,-16.875198195711686,-1.3075327443944005,0.5450486235465417,-9.189339147125198,-5.375067797377869,0.011628032877649607,-4.3723031192294135,-5.289147015378014,16.445209416702408,-14.276876107997808,-4.0368298029931475,0.3893880867200092,-8.645680798401807,-1.2655641542380716,-3.29942803823108,-9.97387064097048,-23.390833536783855,17.773386637369793,-5.926190694173177,10.587864126848077,10.673998906722074,-0.9244308305827094,-5.0900132078475915,4.89393785276721,-13.629356327335437,-0.13041233350262363,-5.671766739061155,-5.017385476616752
32.371190174507625,-61.03921227870948,-4.199670210999256,31.30986590269221,5.270524331982661,-10.566894299066428,-8.72735833488346,8.131440201943645,-12.700146043491733,10.854338668468955,-6.936691856433977,15.519900748883463,3.962452454653668,3.4402258450459176,-12.521429077302201,-3.0199788221975425,0.777245314922089,-13.918280962606937,-1.8222871858531207,3.080213207243153,-1.753569807290848,-0.5298001629950624,9.370803593452536,-16.80467533383033,-1.29211890428339,0.5230438946925219,-9.286900450136296,-5.446968461157586,0.07137868434304383,-4.63486262594451,-5.223690575019448,16.401536088541864,-14.309002963398868,-4.073911685862364,0.4106174937470211,-9.124410545899616,-1.257160222737127,-3.2570292943852137,-10.111904283819095,-23.348622639973957,17.835306803385418,-5.937282562255859,10.589493071967775,10.83345567644499,-0.7653475318599338,-5.016675254185471,5.014718107577631,-13.217060881200632,-0.10110679744944567,-5.675789094488618,-5.18374829196991
33.16193949964515,-61.86274426570568,-5.555635522354495,31.536429734918,4.8599710988916724,-10.933665995395438,-8.954194433372871,8.136065022611495,-13.146483160548255,10.850248633235141,-6.912311810088017,14.223354710504696,4.044689735009114,3.584865392611596,-14.228953808581599,-3.061528882316742,0.8718615242488212,-17.467659283987,-1.9955947867225978,3.0005673010514324,-3.4875878984987074,-0.627228274554778,9.54589000922565,-18.41719076456481,-1.3076774503664936,0.3990305763982174,-11.894023383288745,-5.597177195306558,0.20029437261627034,-5.751223896763274,-5.3074012095305205,16.585472797971306,-15.824500205814756,-4.157086792853915,0.31229025536574,-11.813582903248713,-1.5597734794301596,-3.348885040022011,-11.44133922649221,-23.721874237060547,18.024396260579426,-5.956583023071289,10.680427942309867,10.680320263075147,-0.6113508624917752,-5.074537915014066,5.0195666326969315,-13.231318596889594,-0.14971708676752868,-5.684765893186975,-4.640456026342204
33.20973987801182,-61.49509935825122,-6.8236708631739225,31.41591480956002,4.627976610808987,-11.013843497936369,-8.769150504325223,8.105116737847675,-13.824766606723069,10.809203191342434,-7.007394233393658,15.469252716896206,3.995602460743623,3.743466488475077,-13.967907995687947,-3.068243911261592,0.8596259681095672,-15.539491487257655,-1.8789844085007263,3.08449533554058,-0.8735478843913823,-0.5216871404195361,9.314429946270222,-17.387458798580678,-1.1915561317672083,0.5358692090510241,-9.624908321023003,-5.527298402436667,0.317911886252449,-4.38010134442021,-5.335169803191406,16.841194006663986,-14.69701614596949,-3.9301852909772923,0.4691857839126314,-10.312867973062614,-1.279228575733996,-3.392405151611342,-10.473728703531473,-23.575951469057657,18.00110497349982,-6.029380372718631,10.6339504398701,10.524610969828364,-0.3220950848683149,-5.025090468121842,4.90706815227356,-11.529512802359148,-0.11176160106241921,-5.710175708238938,-4.090319798429905
33.38942666966034,-62.13699284468914,-6.144898131096814,31.66986613808997,4.72247281909777,-11.078708167839904,-8.968434218824832,8.253565829437845,-12.655417871190958,10.890230052989963,-7.020302441119919,15.971000456764338,3.963956475422052,3.498109224351865,-13.719287795261096,-3.0465807353736367,0.9221967295055541,-14.881645010103727,-1.9425862940638918,3.029265685806422,-0.49025297920533956,-0.6348122406858616,9.35731687202213,-17.287029077245727,-1.2395739403767545,0.4216204302105015,-8.561662269204339,-5.504442211398008,0.1941599963331874,-4.071591799797035,-5.378138855419093,16.969781493074773,-14.391607015299591,-4.082126496740071,0.4696618694955399,-8.785934915251259,-1.3766743997499926,-3.4579044443274767,-9.859593744796983,-23.698083523572905,18.010693116201356,-6.028721878981746,10.69031985527404,10.669386155889848,-0.5472540701105046,-5.05145084489747,4.939415947543359,-12.525982415648018,-0.05855429736580985,-5.658419713694829,-4.335929221723673
