40.78122091093822,-63.68546382630016,-31.14263698354821,29.695032249892268,-4.204714063773344,-15.268117631364452,-6.962138012133895,6.99443041570501,-42.13108603358239,5.867545016450538,-5.313650181659914,-48.80031142902036,4.752852177576678,1.7297614859283954,-54.096137038347784,-2.6804853376610667,0.7768752168113665,-100.72042738537561,-0.9419080006721156,2.277188114264876,-56.4910806407282,-0.378405118879578,8.637752386356315,-41.35455306454544,-1.4203169413380425,0.39170532488857773,-8.574570833710196,-5.391043874631809,0.17787807434235062,-5.597998470327077,-4.733895924965796,16.614372584441572,-65.85831825963486,-4.977997680553265,2.0211963707974125,-106.44637441247194,-4.288699769878334,-1.3361950312139443,-57.89075458469745,-22.942858395225798,17.36963049655515,-5.82149442357104,7.895428453137012,2.114281769328839,-67.3164175582758,-6.805384392931985,7.787429578441529,-99.61310968552122,-1.8865905301488641,-4.747092746335677,-46.70903074404064
39.90004256570305,-63.0042990101162,-30.08880409872921,29.34218716362228,-4.382177044818742,-15.305733249558484,-6.9056193284917455,7.052830960351842,-41.81667568034734,5.865134953993034,-5.2575645742616,-47.47778850333549,4.6301385183986055,1.3575756149863913,-54.689917002113795,-2.6055658746959534,0.7884047705850827,-102.13976454109799,-0.9954636058975979,2.208200548701496,-57.1783468483301,-0.45264846121271546,8.544822845732364,-41.593686486242,-1.5399218155759833,0.2560083003298125,-11.402514062692347,-5.564996658584779,0.2874595447074232,-6.361751447447052,-4.781349834843742,16.25430996368483,-64.18808694525944,-4.88929973505902,2.177277090371611,-104.49901344087652,-4.075547832521384,-1.4427396832451904,-56.26583017232691,-22.842843756039958,17.22403140878305,-5.707046921519641,7.93428419827421,2.3963923906153206,-63.13386809626103,-6.844593688562676,7.39630268424229,-94.25372536497103,-1.6787559491945505,-4.922975886731798,-43.236039515708434
42.31838371100639,-66.95650198876385,-32.039734510494874,31.01796795684953,-4.501285631998962,-15.805720244111157,-7.24521205153357,7.373889903376831,-44.361751088648646,6.205401899421465,-5.596855843675449,-49.713831326306206,5.005736589580576,1.47068868334478,-58.73509634918398,-2.7372234503851374,0.6898508064051384,-110.10162912424225,-1.0053739240026378,2.308365906150297,-60.84768158733596,-0.30772133914130345,8.894123605417073,-42.32749419080867,-1.5902312364115996,0.432667339798159,-6.1218272389227595,-5.2783949899780405,0.15819608843377245,-3.2202774141271973,-4.933239096170998,17.179973750820594,-67.7482276889915,-5.216715806225319,2.03677440713343,-110.26605371101691,-4.35615809022399,-1.5764676508361504,-58.940188053641215,-23.99104020570536,18.172622420904435,-5.945541931828051,8.42308055116293,2.6425142304391818,-67.63052051093287,-7.139860644979564,7.950079914488742,-100.9531432439709,-1.7099498274408242,-4.959189170207048,-46.18776172218573
43.32817777053692,-68.65374459886213,-32.02689510218925,31.854536555591448,-4.892008998676817,-16.255933830057636,-7.305221176530952,7.497680961362342,-45.92800336777094,6.448377455321761,-5.7474939831665806,-50.568348518818176,5.275515815156569,1.444327024592411,-60.461234459750294,-2.9008948777204466,0.7075249830608009,-112.58075025992703,-1.0076164196821267,2.4635997511707095,-61.85711576825013,-0.2377848444366449,9.188698431897022,-43.74023973327161,-1.6212599767954423,0.43308657916933035,-5.734936781296427,-5.310330100602022,0.18725220125292086,-2.8294113908781195,-5.007546691906557,17.34292227793104,-69.58440894041196,-5.361677942154084,2.044595489309533,-112.9847788683662,-4.401818029329303,-1.629999864425568,-59.50767907068066,-24.692520141601562,18.65765889485677,-6.112284978230794,8.615106853406077,2.8142542728414717,-69.69679182003247,-7.190237518855462,8.2316472455415,-103.08278432896934,-1.749297113015669,-5.136714996432815,-46.378243809351794
42.68791954789274,-67.72235542194706,-31.09420323767125,31.502200798843273,-4.987303050735785,-16.363452035130447,-7.3062735470580735,7.41105495205224,-45.87834678612668,6.308434396028155,-5.657090464920272,-51.660309956411766,5.085139436415346,1.0872846434476056,-60.033807608832944,-2.868131516706446,0.7271818648336582,-112.01700421457758,-0.9781693219023041,2.340855261712223,-62.79391533901395,-0.31498294451720243,8.864463506225908,-43.681178935756826,-1.6612586940385932,0.3031068482166233,-6.164653196922301,-5.427815158054123,0.16441767930225462,-2.8267037149096494,-4.88195621475499,17.23175766227448,-68.96967133512887,-5.198861026822408,2.2410964324209264,-112.87617560270837,-4.330812391651217,-1.5178992574353174,-59.98510350882014,-24.447062174479168,18.43915303548177,-6.002023061116536,8.462768501562758,2.9497149906936984,-69.55985251826407,-7.286866746217054,8.111048492435568,-103.10315702801755,-1.8343167122112034,-5.278220439693889,-47.37517775744945
42.54708492789557,-67.50438517441533,-31.348560467625322,31.360212342629605,-4.511261873386876,-15.956107226991834,-7.309867772390518,7.51749786774247,-44.93804443412288,6.13326210638229,-5.485582306150899,-50.71444996216615,5.141237266831097,1.3068290048716553,-60.79759608655809,-2.897604765241585,0.5749733245081747,-112.49437735345902,-0.9266880909708392,2.351444579497878,-63.185777558104895,-0.3333250543471126,8.65253021024589,-42.59873845428986,-1.490461126838199,0.5660041178933048,-3.6988120080953686,-5.1895542480536685,0.10783521960092668,-1.509672759915863,-5.095807627216263,17.00762894204047,-68.67966131222,-5.2038639759005365,2.095394599014826,-112.17601932257185,-4.402852362800188,-1.6165949464405696,-59.98817377073783,-24.441947595028278,18.34116337549428,-6.004823598901619,8.340581139207542,2.6763267002669955,-68.97248883008315,-7.0847782606639305,8.133367224658818,-103.99844503713915,-1.7552989497380656,-5.092500221898821,-48.2538336826567
40.39036251918376,-63.78519476760829,-29.45937817987327,29.80458445972151,-4.421235897366246,-15.362861162838067,-6.9785318619711925,7.053215121176376,-43.148603455148226,6.005393898142128,-5.32734363175947,-47.959685952950814,4.834663564294334,1.074926680143533,-56.31754831257367,-2.734121288106556,0.7369575987287043,-104.80412044656323,-0.946108894967041,2.2215149397673746,-58.33756096102869,-0.3131315666595177,8.577223705948052,-41.276388031495564,-1.53997025752718,0.3873167900810692,-4.421695033854679,-5.1626606050134205,0.06759097556764228,-2.3809509192397016,-4.724070376293809,16.279549545452703,-65.4357826497111,-4.983621081403828,2.0240608589719336,-106.5439428555078,-4.130627282561856,-1.4631390406315328,-56.30846258152942,-23.084911346435547,17.45704396565755,-5.735596974690755,7.9374039127012495,2.316245761697163,-66.8338025850616,-6.889326067270406,7.7116704806265695,-99.29617902991653,-1.8179332414155391,-4.958996195215159,-44.53760532181383
39.583476244102506,-63.40462741112011,-27.527512892128986,29.757929879206205,-3.4865104966045948,-14.684287739277137,-7.131575524998521,7.1734072148160495,-37.92232830637721,6.528356221554507,-5.495493159592627,-40.755953098718614,4.750608855224372,2.0402715007735597,-50.460523591466476,-2.8267379695318553,0.6785304081650879,-94.89528067893302,-1.0052872568413183,2.4083385058907294,-53.34755548745273,-0.3582351558986507,8.823859956205007,-38.03950447878379,-1.3134825719565664,0.48970088442202103,-5.813801151048007,-4.957154150295731,0.12086553927300757,-3.4576446573184767,-4.7206291168016685,16.110610764946397,-57.941813227622596,-4.948784085242493,1.6241380192009298,-95.51729253813913,-3.950947855618944,-1.575051877258251,-52.050240941089946,-23.074537857067725,17.310470844292254,-5.790812477241631,8.153958437236012,2.8753387765906044,-57.59823555118928,-6.520944672941321,7.507486317228435,-88.61043366030555,-1.6181028492614342,-4.972599385116367,-41.89364954504653
41.663738335079834,-66.81655795532374,-29.449357371893488,31.1991639054685,-3.7310110726097574,-15.445086613383642,-7.44648197733606,7.5462696217921765,-40.71720385486339,6.549767266187363,-5.558506422217833,-44.94638875028827,4.986245736099348,2.0148659167751166,-54.76990985236592,-2.8644272979221994,0.6631516313372111,-102.48709741666202,-1.022058656133711,2.5215023953126723,-57.71354244849304,-0.21768290989857453,8.947557413417242,-38.80624817102362,-1.4235564683045938,0.4660805957716123,-2.6241471957817484,-5.024964367866777,0.10718061471642522,-2.5019282137516754,-5.193891404053565,16.636155563873164,-62.21784719675694,-5.328650825431043,1.6668102567580707,-103.84659688122456,-4.295538178542028,-1.5937300119858495,-56.58881262560067,-24.21114513407343,18.25244834997538,-5.955831937036699,8.414013845236603,2.5222433449781114,-64.4158591477305,-6.97079345607002,7.9812093189593405,-99.78718974737767,-1.9311704549138133,-5.072829396550348,-47.78578632695832
42.651432338445176,-66.98268036702846,-31.953744521684015,31.20025706039078,-4.267198399953073,-15.679164895020456,-7.183075326366236,7.4320720389328185,-44.34990558747058,6.1191814596234435,-5.418877651035456,-51.78361640609659,5.093761295713012,1.144442688529454,-59.75107877690218,-2.95582929481261,0.6492381654003377,-112.13885371413299,-0.8566488455461716,2.3002141882921747,-63.43355548189038,-0.24610594832320887,8.648714187407927,-42.69518638320104,-1.4652124269688933,0.43973900465103627,-3.4742514223912853,-4.969610665697887,0.10709002466225959,-1.7238766449254284,-4.92421952380012,16.92840333117343,-68.63301154718856,-5.400066957807287,1.8150712056634983,-112.66969101531664,-4.46410852850001,-1.3674353114173876,-60.826672587257015,-24.21669642130534,18.128950754801433,-5.941839853922526,8.100797247485756,2.0048065094051872,-70.1039728763857,-7.026690563601612,8.282215293747148,-105.70065617103091,-1.9819932724759346,-5.046103273135826,-50.55508615764577
42.31331213888843,-66.65877393345005,-31.31188185434605,31.0105584371429,-4.57428026830499,-15.844829179080007,-7.1523705566827935,7.382361859688596,-44.262613113075815,6.104444974922495,-5.308246764506787,-50.6146943702748,5.137402433603276,1.4139059910233194,-59.1201083509414,-2.906351968245648,0.674121108420275,-110.41231380392132,-0.9690404582078139,2.348946971112649,-61.7796956471255,-0.29496088811228466,8.705068965928898,-43.22107646054081,-1.5688558417776042,0.518169541856803,-5.103574889995797,-5.103478147834688,0.1189746457527064,-1.947252087357927,-4.9188149978704505,16.81400338206243,-67.8234760005704,-5.190737492248572,2.066746157199399,-110.93323415349089,-4.373572334223026,-1.507222412179523,-59.38114240608516,-24.104024251302082,18.04721959431966,-5.950818379720052,8.192571035579034,2.4124869211145206,-67.49391684352453,-6.922490384672788,8.007615997033207,-101.79209763173071,-1.8327234229649518,-5.020050486756471,-47.66966584261828
41.89581012888787,-66.05365530304724,-30.70991567198615,30.862066805703122,-4.264434384857236,-15.423972317115414,-7.132204719301236,7.465681141231528,-42.68262070310352,6.269743082273325,-5.30550342321376,-49.62731429292935,5.014554572864785,1.3125305275549966,-58.250204552555566,-2.841136077263419,0.7114863171093647,-108.74304496079792,-0.997716702991447,2.2460777092380217,-61.696410998393986,-0.2731488049242489,8.707105765809576,-43.05733323509241,-1.5760662176923257,0.3623212361507371,-6.318432054530131,-5.187386324820348,0.19127526775673673,-3.3800898897515914,-4.805942462013647,16.859772073484894,-67.27287086604353,-5.2569047836415725,1.9010546013077925,-109.719374280069,-4.314304532260896,-1.4401749017512655,-58.92374476733613,-23.949302673339844,17.879962921142578,-5.865969340006511,8.132140314804401,2.2699870500721375,-67.69169181789893,-6.946189047406392,7.90492219018828,-100.77445158877454,-1.9191375919237117,-5.05470027105251,-46.813769082483816
41.47876773013128,-65.57084926369026,-30.324408471323753,30.683368438766255,-4.152188014618771,-15.311755362163062,-7.256403590172141,7.459735379777985,-41.8352458260978,6.282067646716925,-5.429107481972601,-48.33400342419596,4.834891371027182,1.2387268565835219,-57.13946157812533,-2.6963025315104923,0.841320583227621,-106.76472625123445,-1.044942199624203,2.2618029911473143,-61.22485171995377,-0.385375506722517,8.551480361321394,-42.75839943580405,-1.535875909186408,0.35026939835342646,-7.560430558835578,-5.233984818748161,0.1292084782028585,-4.325461136662202,-4.786960721973883,16.73201127755522,-65.67917286149043,-5.122396870641262,1.9951285184038807,-107.26572605055865,-4.261500277226152,-1.4418508259965706,-57.91264570662174,-23.81664276123047,17.75628916422526,-5.942019780476888,8.324027544928057,2.4400983673503185,-65.04319486389562,-6.9552629088864855,7.693769936165019,-97.35636167381631,-1.669040123140876,-4.993670358934518,-45.310957886825435
41.42065129725478,-65.65975858538182,-28.780512514830292,31.010399591452522,-4.023102111927487,-15.122622825176103,-7.118239742433869,7.575405248616065,-42.54562233275825,6.48978613805108,-5.459985092405105,-47.08495666042626,4.988226800631807,1.5268433036578892,-57.802525508701414,-2.7994508922142196,0.7928731698121846,-106.15150132356457,-1.047196374745004,2.2038757683826407,-61.19092840148469,-0.27844522555404,8.642512340105187,-42.333246650875274,-1.6432726843998111,0.2907755219524093,-6.340320600213815,-5.114074131630348,0.2115231611098375,-2.777963345636394,-4.752652504377857,16.64151312537383,-65.84492149835141,-5.257068956082512,1.8280696381007449,-107.21235275735391,-4.216876110343468,-1.4628661098856164,-57.202482345054825,-23.90239969889323,17.79981740315755,-5.9254147211710615,8.254199991182452,2.6698369662066077,-67.10866176848913,-6.969184486920824,7.867659941211291,-99.27760048505691,-1.808413887375638,-5.137152024995391,-44.87168497616866
42.72742927314129,-67.54086553202352,-30.53537162765335,31.751367244836796,-3.7947696030028837,-15.33143307354449,-7.409986397250326,7.631820133641399,-42.15208184355924,6.657417420883545,-5.594599595330554,-47.76017374507401,5.117219090147467,1.3373868724739448,-59.017971413856976,-2.871355001130752,0.7912929684112348,-110.22403955977488,-0.9542621218893673,2.2289271801279447,-63.06317843255133,-0.21977161909015688,8.931019585040751,-42.7037031440845,-1.5317330029502216,0.49370884065203996,-7.7552870032537315,-5.229619836326941,0.2354944677319671,-4.711314480922099,-4.873736081616784,17.170455824591162,-67.58032355904686,-5.47722397848377,1.623645222973319,-110.33964696693927,-4.386329120008056,-1.447327876004561,-60.110839621043255,-24.446072310026278,18.210209719057154,-6.1753487705637795,8.421073530689895,2.2659572838892643,-68.82822536174146,-7.000573505147841,8.218276062547783,-104.09094282457058,-1.8844672318564022,-5.071379731949476,-48.50215362191889
44.04379856874084,-69.52783289403634,-33.08509115258088,32.54294197299591,-4.45018145771326,-16.269946540940087,-7.564283555368083,7.946496883615109,-44.24897765531156,6.66996760050289,-5.735527783902794,-49.299604556038965,5.003031325722245,1.9345872466871639,-60.083325541723006,-2.7269092638252155,0.9610640437416119,-111.05840799904941,-1.0625382880220102,2.32330230187354,-62.80344278002179,-0.33670584554298394,9.417317461265503,-46.64953428907098,-1.6396804689380555,0.04170632864356424,-14.943759409032952,-6.006203691184077,0.4436911022835581,-7.576352602630318,-5.085305005140921,17.506030476852224,-70.01756905833658,-5.467288338090307,2.28064382445584,-112.81038283288844,-4.487112183630175,-1.3586755446283811,-60.582896991015694,-25.15789570708017,18.744157689704448,-6.084041987761727,8.854792628514806,2.4644208870496143,-67.0415457587602,-7.479181290781914,8.004425871305749,-99.99847730451275,-1.7764693535530605,-5.294870014392631,-45.689090528560115
39.82101753148273,-65.9529585338232,-22.292392547323715,31.88057803548801,-1.8208464974717529,-14.735508886599947,-7.968117674877622,7.793833850810742,-30.178696864897745,7.064174664304944,-6.380201674985902,-37.90489226827116,4.616176898642924,3.491105968634272,-38.61238914310882,-3.148645691965546,0.33258182503867517,-84.1561741940046,-0.8114435540050375,2.3751725079905657,-51.84681159727109,-0.31769749135454467,9.79345296384809,-38.10885446823017,-0.9868317872749474,0.388625910116206,-27.84364016800375,-6.067910943584516,1.021385924624309,-18.49668196415888,-5.248180548348079,17.33173064800367,-52.62385758036646,-5.609913586918481,1.33568186217427,-94.10085768381997,-4.365978219112463,-1.673430507755919,-53.29585314547018,-24.33276216017785,18.401396556841476,-5.948215105391278,8.45674547800188,4.047457520134642,-59.46254959724479,-6.685438506423537,8.03253761002539,-95.2409758087598,-1.7980125241022211,-5.009256974430124,-48.539224786990616
33.39004255604793,-60.985387842089835,-9.051597156191898,29.87815379769981,-1.3097824617547724,-14.700099491467844,-8.600658433749574,8.057396974448922,-20.013479189057104,7.885818202566173,-5.988926693871611,-15.92943057385214,3.4272680125674397,2.1023262094216193,-23.276267802134655,-2.850966253017822,0.809471294916538,-52.99790548161716,-1.0634912754322818,2.379571237429244,-32.22435734932649,-0.33949707606381413,8.608268115046627,-24.26294551296746,-1.0443289633936585,0.09183519019750504,-18.34824648416568,-5.99871406406709,-0.0867091187774761,-12.4782573864847,-5.1559742314135155,16.330477847775395,-28.92771333158528,-4.697466440391625,1.295905518513757,-53.06539646242399,-3.36781181215879,-2.2395547301791963,-31.057594145596507,-23.530308865036673,17.176483020381884,-5.187433198569669,9.089481261143064,10.016730612530003,-19.074889651751512,-5.74935895946896,6.189283435354365,-57.00003526774165,-1.4385980673419843,-4.841445699436986,-30.55286904122924
32.1112684085281,-60.909356044980846,-5.096742854772889,30.434687536922755,2.537340455023772,-11.924022101500178,-9.063950038521424,8.278444373188703,-13.808854271213647,9.35563892098547,-6.748673603812853,0.41927610960503436,3.8736198795363563,2.329679514265677,-14.934775350536883,-3.1130062135546157,0.922135052151818,-33.6714838791835,-1.775786260780179,2.3469034343774298,-20.853023313882705,-0.3463431113249478,8.22535034675414,-18.292468176639826,-1.2091856196416686,0.574731347838678,-14.034842744464262,-5.564977476516689,0.31547912574644477,-9.682484778537352,-5.013405978406942,16.313722478372245,-18.830758937420644,-4.332507554065699,0.3389798662804219,-30.615091432871242,-2.138540164007983,-2.6306855846298522,-20.059206716866232,-23.183501402757063,17.66450948766259,-5.431678572660395,9.981180598158131,10.931664386334859,-7.244622328818078,-5.3102545103795675,5.994434532521924,-36.16844834889677,-0.6691460210187911,-4.768633243365865,-20.28169443773543
31.58996970786545,-60.69959482028403,-3.7515196143866887,30.593204476030547,2.2533446807988207,-12.096811505987915,-8.895051919939187,8.221406501147877,-11.096673341732824,9.801953113171093,-6.5514482620517,5.78877979232914,3.7983030319522335,2.6580185544371195,-12.640995664251285,-2.9664547666197323,0.6548715450593591,-29.100918587442635,-1.2262666272307527,2.9424074061518,-17.834805697835417,-0.6135032726463268,7.675144536780427,-16.59411889914537,-1.45458114778078,0.5413205401565745,-14.5824665489657,-6.228454426703844,0.3863302687357804,-11.133465194134443,-5.247207987854893,16.190783888182647,-16.52784570430868,-4.20081549544449,0.43437244630008004,-26.194254266886066,-1.8978882877054195,-2.933258561859906,-18.74525461960925,-23.448842497705115,17.752261249269456,-5.537100505848486,10.061834267763489,12.424851582787122,-2.130256244811584,-5.470571021098361,5.5072724748096435,-31.499617735981904,-0.7474458395908989,-5.20941423624141,-18.601463575715282
32.00405781002048,-60.92940435695692,-3.899844475654563,30.774015328310423,1.9108798262576343,-12.27174174229553,-8.58307686938013,8.237344027823669,-13.484573373183212,9.862415808900565,-6.739602429803788,7.53074037793446,3.9407925663462557,2.207349906739642,-13.0701845524179,-2.9797455750219215,0.6874685135158307,-22.114892947658873,-1.4617532103043207,2.9648111985780545,-11.051565705770294,-0.6514626783760732,7.803055765315437,-15.610334316872844,-1.267927711224046,0.6350750929012389,-10.405507908624223,-5.749867745647857,0.18293440246502493,-7.11758133412615,-5.208441796046012,15.957972683931075,-14.090612512878954,-4.1223341578361286,0.4744321670128011,-15.745439899614182,-1.4584936122958947,-3.0805397572493223,-12.385435354737155,-23.604600979263267,17.665460794776155,-5.747012315049839,10.477734109535879,13.127863524824791,2.83626924503878,-5.181499971221597,5.25545247511998,-16.216774713421852,-0.2420208381340305,-5.283241221240114,-8.406010646549136
31.184572873183043,-59.363471322141265,-3.405505903086983,30.301516251134114,2.5311773199502077,-11.597579389008942,-8.481204511974164,7.920379659012092,-12.773074336263614,10.133261112840287,-6.564811872483296,12.449237119705453,4.146635121649814,2.316360113243536,-10.38990221379124,-2.916433252178583,0.752141351404414,-13.597732335445343,-1.714553805162379,2.7544908970303656,-4.578036144549503,-0.7240068874857585,7.9028681644520615,-12.555336801099465,-1.3466028136055737,0.5704540060214873,-3.2541206230452153,-5.203494806409872,-0.005671177701340416,-3.006660026527466,-5.137023090502653,15.689536379647464,-10.486085842977307,-4.07266258502433,0.37956376942373665,-9.777553998321617,-1.3602165811385298,-3.2176584507670767,-9.784402474517302,-22.9263346754728,17.401218943625494,-5.6647336415769445,10.112164942582563,11.39749010444754,2.2704356881573653,-5.083295813415484,5.136124452156788,-15.32799134082284,-0.358859606503988,-5.1472300436932885,-8.31858256835705
32.3805546323998,-59.82335727576329,-6.78420332439138,29.984858133466307,1.851248804807822,-11.94786575388859,-8.238774667453905,7.855869759461124,-14.784905433635915,9.9227091197925,-6.5887139703175945,6.22462272888465,4.221942902652625,3.5236577401271147,-15.817559785555305,-2.8664687911866857,0.7467043974365248,-25.83796025501135,-1.6251239945842946,2.9746977121248754,-12.110490455438573,-0.5444484799681019,8.872593681108516,-19.69132243292059,-1.3127945647383223,0.6373969309213611,-18.367098425513984,-5.785023256064666,0.38764578082292606,-10.601515829842866,-4.887924294340459,16.364369823376617,-17.939705902612733,-4.098750382313924,0.4366548755170669,-21.082706966433843,-1.6136254164057762,-2.9321972181682945,-15.243043428954254,-22.889959537263014,17.48095700743949,-5.741282988924156,10.239877245580109,10.853262734593116,-2.7942278558917706,-4.98696416932668,5.162785584170918,-13.47341863024237,-0.2490675505354073,-5.332036600432413,-6.1038723353905135
31.704245104415477,-59.701273382126175,-4.267664893370705,30.3045964563461,3.096985194219497,-11.470012540515384,-8.460924610321982,8.057630705539813,-13.116715720766543,10.452403467421787,-6.636538870579247,13.581914103163003,3.8872030213437836,2.4121413069015434,-12.477102466115634,-2.880273989245024,0.8333581398815505,-12.462199087606876,-1.8409160098988904,3.042184561918276,-3.0877431119401937,-0.5470974283545644,8.358811408720486,-15.427349324880808,-1.1992609971667243,0.6138718510899762,-6.024321640236519,-5.280739712122359,0.14036818476539967,-3.628768065869409,-5.0778130353364554,16.477606292841212,-12.615969839416465,-3.926118288682945,0.2943922630302014,-7.458033567083199,-1.0780221593308015,-3.099766640133645,-8.455077809867946,-22.93192515962184,17.410908792013522,-5.7202370218685346,10.138626921520125,11.910765216183696,0.10829778658259122,-4.866723866226797,4.914363716471152,-10.51131000893959,-0.18768543461763562,-5.533521730967531,-4.3135699248050186
31.26844769144991,-58.65753973540658,-4.685697557410715,29.807464975756357,3.46706494446803,-10.99559309659216,-8.481705276000305,7.921729057279111,-11.669206696596374,10.16058017259751,-6.570019535609274,14.834954700246806,3.741437842297003,2.5448717757919854,-11.869957522315898,-2.8769059994296895,0.8614843046436391,-11.220970913215359,-1.8622399758272152,2.922863834239774,-0.8492735859266555,-0.4580107248806818,8.679782292685157,-15.054462247729994,-1.2205223384649182,0.5573270690609218,-5.756122164666792,-5.199821066841982,0.045962652601466064,-3.372629898211935,-4.9463647304512195,16.529299460084896,-12.387750967208115,-3.822558656642238,0.364959133262228,-6.630551801355183,-1.1549950687940116,-3.201362825610286,-8.60838775151881,-22.5218576292806,17.118953259688283,-5.636400393651511,9.984021555138606,11.671039000234947,0.2104870662470689,-4.710592157921247,4.809916936391438,-9.849764031819696,-0.12793676853915462,-5.410627408772758,-5.106406372095585
31.44243987349179,-58.366454317527506,-5.52590415438882,29.76719277981972,3.121944529545329,-11.17543425406886,-8.324829094502006,7.879503612315475,-12.397469399707921,10.124516951522269,-6.6148201437031595,13.730066074225372,3.724692774720958,2.6782417696756675,-12.176694296153363,-2.8353918754802514,0.8085776712892917,-11.347435598130309,-1.8251841408411538,2.8526662376848577,-0.5869830261489687,-0.47249014518202204,8.762357987067388,-15.452062859666574,-1.2433592688785196,0.5389823334750385,-5.879456752653263,-5.214788575576566,0.10338345858623328,-3.25619076141102,-4.974053338046175,16.369570919415718,-12.628524586493805,-3.874898145254035,0.3550656185873704,-6.66438307634457,-1.1137553847210786,-3.1890277731298124,-8.438787376996158,-22.49160179594809,17.09450471470588,-5.59644584066545,9.957241766112558,11.463839819693346,0.43232394062735313,-4.771129088784597,4.812902120760695,-9.863216886399522,-0.14647504463809174,-5.398116021134501,-4.500234277243902
31.450205686964548,-58.903563234608676,-4.908239636124982,29.99205697758234,3.632607339166945,-11.021579114991477,-8.414823803973961,7.974213265997119,-12.951507729497502,10.312449980870307,-6.676231370257931,14.164782306290553,3.774923979829591,2.599028297668814,-12.403636824466957,-2.892757605851072,0.8041195842557741,-11.629713869703059,-1.8476916189019732,2.890003849870853,-1.27441526182764,-0.4942963440942288,8.733998539571425,-15.681989978191032,-1.186984458714271,0.4759449177940612,-6.3200018408221155,-5.283235843193378,0.101733338463859,-3.6411057475960185,-4.9161415446077745,16.58128379592743,-13.154272518332514,-3.8438929779908886,0.3467879216036727,-6.8753881793384695,-1.1660724476419528,-3.1716999427644423,-8.493952434684749,-22.63226789396104,17.195363077111868,-5.601167902426369,10.010606922544868,11.513237486576351,-0.5975339827311288,-4.822134737548125,4.802630399422797,-10.47176344269209,-0.14743621745362942,-5.490398103954316,-4.4262046505031405
31.94159016076401,-59.467325171335546,-5.608893917683908,30.301048650853804,3.5732356670700205,-11.288177231258892,-8.403723490803584,7.920773418583752,-14.585704170057076,10.280685634998273,-6.664028577746431,12.880531714310232,3.7786275044273965,2.7384837004173037,-12.496147784163128,-2.8946544244706067,0.8243876287638265,-12.31123541256144,-1.9331258304131422,2.9513083774944193,-1.243054202244627,-0.4806318455054473,8.955176007106907,-16.18875562825137,-1.2869208962021734,0.456633512243553,-7.180214972360287,-5.26215222748794,0.09185573580375782,-3.898172619827605,-5.020680722854476,16.754755331300757,-13.559610621973937,-3.8748313719345666,0.2989365998896344,-7.604964624096948,-1.1720781247832248,-3.274386134258815,-8.804033790029807,-22.89161554972331,17.405646006266277,-5.6359148025512695,10.18841059392155,11.640173595725207,0.2938250196970213,-4.8933185507219985,4.835516754116129,-9.88672394652278,-0.19882789369063436,-5.575035839178949,-4.202375189835976
32.96866272678637,-60.90472066230756,-6.710041628727314,31.04189123020379,3.5995552464111475,-11.429178702268596,-8.671252654224917,8.050153385832486,-14.736243859133046,10.513634605401917,-6.829104333595436,13.071808950213844,4.011469573756432,3.0809651071623523,-13.253106638677439,-3.050479911794817,0.7852605913498817,-13.109834485211536,-1.858532971649044,2.882065817550593,-0.6828541196924189,-0.46956310682840074,9.218700355793679,-17.396138326781003,-1.240298532775493,0.5147008373883007,-7.858630244073112,-5.478074417655303,0.0767245223197963,-4.217058066097992,-5.113920541383409,16.660205842486384,-14.353192338771095,-4.013366968805986,0.309101894513402,-8.552945394648242,-1.304436107251988,-3.2304480152206954,-9.868821217947426,-23.278821454535642,17.60802501312787,-5.720018104260039,10.3286778366539,11.199253835086395,-0.9188084039121786,-4.89980374503619,4.802987776414722,-9.607238073516838,-0.15492874081211025,-5.752842051233073,-3.4169370992370403
32.798340413070605,-60.46029259053586,-7.013821509330295,30.73450771714955,3.693314267087335,-11.303150923336055,-8.637992540147975,7.996116651608575,-14.685738703063274,10.457659294518853,-6.7766472004067895,13.173619204452313,3.923850167793328,3.462083694068023,-11.961278289745978,-3.002255726317616,0.8426842746435738,-12.796289603854772,-1.8762997606201222,2.88849270018962,0.218322989252714,-0.4783723034445803,9.44340540407265,-16.429523478224265,-1.317196384602209,0.4226133312286085,-7.7958289311723625,-5.352287462039875,0.03382915737885732,-4.151480715700067,-5.0679066679621725,16.805360142995653,-13.757889683329287,-3.9515484759666712,0.3073220990739675,-8.499931942473934,-1.330388373778243,-3.34129854857884,-9.815474498440866,-23.169357691604716,17.61006001142534,-5.750511583419907,10.309241984797994,10.991980272767771,-0.9741640461390529,-4.886677524527052,4.816822402131348,-9.808886945184497,-0.16025029429283819,-5.622375061610074,-3.764330400673158
32.927691770065486,-60.177886121247354,-8.024983010184032,30.645872067979298,3.4248095410251196,-11.279458025263237,-8.37142904033252,7.828432902970394,-15.240082495540378,10.307131663852177,-6.819685394873005,12.385069970398652,3.8281454790583207,3.62063446731438,-14.246912686729319,-2.960697163264894,0.8250595623655781,-15.11827351544921,-1.8175553242590647,2.892471971569135,-0.9132811235987983,-0.46834025288657904,9.575019048964249,-18.657177201708166,-1.3113347257746504,0.4766768559834391,-9.635980614756564,-5.50277675000899,0.10268320331353546,-4.372960426464472,-5.023639280540818,16.60371683527974,-15.7582315062959,-4.173655418015147,0.21442151838290846,-10.56984274677965,-1.2941609196662933,-3.253456600734021,-10.302076832419012,-22.996771202498476,17.413957043936165,-5.726650799459418,10.284822633712535,10.571788526042722,-1.0847522975200563,-4.865240841865714,4.8944390824988595,-10.17937380534112,-0.0836301500554792,-5.686163256237337,-3.2318391254497616
32.99659440656783,-59.823690324214915,-8.59413667651311,30.30210638228745,3.1689941442245733,-11.461149319402438,-8.349984421171104,7.920507603045927,-16.10894971855784,10.183893890533156,-6.771914127950613,10.880775244870518,3.946882107239895,3.5170108855153934,-14.667630775462802,-2.924945520181358,0.809597194608482,-16.342740278024177,-1.7798926297995352,2.8120610122037966,-1.331646765355491,-0.4919738523230855,9.621971109768694,-19.09240805064721,-1.2858870590536957,0.4774046264875739,-8.653125062989728,-5.290996681010989,0.02197012957050165,-4.2066832769378895,-4.918392396837793,16.786741811207502,-15.860371884249405,-3.9629241791271888,0.2973395470660702,-10.762618421995098,-1.4291156141695804,-3.311110000044384,-10.67232424018538,-22.844071672171406,17.361500066303584,-5.723567953029543,10.157391386967998,10.59410165503666,-1.20801328554512,-4.885539397111138,4.813427711415805,-10.402030575928132,-0.19175359272920592,-5.546168950815638,-3.8887626532437776
33.70588229675964,-61.04255642205689,-8.657836474520971,31.024485408110195,3.1714960735451085,-11.618643394817198,-8.530164201926054,8.112521128952395,-15.471093223770993,10.464210004643574,-6.848985897429434,11.729140710569437,3.951930048704952,3.695073931851779,-15.591683757261691,-2.9971653523994384,0.7366539971370459,-16.47387986571932,-1.7392117225424932,2.875976209066568,-1.578963136144038,-0.45529646772114885,9.907231179993689,-19.5119936319939,-1.2577748954768158,0.40496252116423714,-9.142954006301816,-5.499849596553635,0.17966774149473771,-4.506681477511138,-5.094597774080808,17.01312234005897,-16.30995965429533,-4.070865054592614,0.33223625279658225,-11.28946366172314,-1.4238675437101158,-3.3040433206220814,-11.238078636159038,-23.419062344511634,17.68011127355216,-5.8813994834899255,10.343424384184173,10.524450289120079,-1.8796825673413444,-4.933086035804272,4.94494043672308,-12.138226883371344,-0.10283484966303176,-5.7158170858562585,-4.375558419991584
33.345539138551246,-60.61448519253631,-8.037093942539308,30.79071760801663,3.279730726420325,-11.52499961374682,-8.407970372774308,7.968809462882617,-15.376791781788754,10.404449773067475,-6.8897438619519775,11.024643378014437,3.8923012919442623,3.4088430663121234,-14.319192939803855,-2.940735940455341,0.8438996787622544,-16.190424267046673,-1.782388294528931,2.8760020251644556,-1.754486806461454,-0.38304780929726395,9.918696015577478,-18.770258669784553,-1.247230048800511,0.4509841604423987,-7.912624089458962,-5.459181768194462,0.0629960054182822,-4.208873128840148,-4.844250589145875,17.18590767810181,-15.780785738147843,-4.017273093061044,0.25442985278064006,-10.013870788652474,-1.3668340819244866,-3.213553173476988,-10.809232994228,-23.192923865995635,17.503846005211166,-5.687462329884883,10.34430189776286,10.885148534103754,-1.881942728347066,-5.015012586999986,4.988425562853709,-11.91906989935183,-0.20205212262185554,-5.652041733513187,-4.88766433357443
33.753909421749135,-61.77607865238235,-7.75160229334066,31.414058948313695,3.7755050629726057,-11.582307800198576,-8.719543316474601,8.162566707236676,-14.914550861138968,10.738943027141781,-6.972962848495079,12.257965629436304,4.00669987114189,3.545702472438558,-13.80523604217352,-3.047313831787433,0.7762868799372424,-15.077314691297671,-1.8130122098687853,2.928424151390742,-0.8009967158732216,-0.4913559799537592,9.855888223897589,-18.160069496877934,-1.3185442748808933,0.4432552197421476,-7.887994561709064,-5.406091787511563,0.11163409110882459,-4.255578486256385,-5.155108416482837,17.326821257403722,-15.054014976422833,-4.067293238528564,0.32119973400920854,-9.080020973298796,-1.3689765903801117,-3.3084388474675968,-10.541400121618178,-23.631853087172548,17.854821027604043,-5.953855986684772,10.5733710279061,11.167239555065697,-0.39273232600928915,-5.020016035114157,4.908491884603098,-10.939943152617396,-0.17867498346897626,-5.7731798695585255,-4.901705816354803
32.97178309235674,-60.43083297554298,-7.473468378758892,30.648138894142566,3.430560133336305,-11.445355116737124,-8.531212159571885,7.981551837657466,-14.799316324088613,10.46341753948675,-6.73025328344185,12.091039559727458,3.853256082285722,3.4139397259682838,-13.604303332752485,-2.887623857618886,0.8192724406458494,-15.013554183985866,-1.817457280292783,2.925129832662399,-1.0629212238585362,-0.4931920388174824,9.683650135790465,-18.523352723086415,-1.3069171589610564,0.44994696745988555,-8.416980047652318,-5.319982747505615,0.14457207962115923,-4.358449043221639,-5.010993611644372,17.141892065433154,-15.049748479963055,-3.927502694914379,0.3105645265719105,-9.10936743103993,-1.3023814070147337,-3.2773960855138413,-10.305845585958133,-23.079932401927135,17.526374236146534,-5.771410432382692,10.331068879134678,10.951252409202212,-0.7261016534960065,-4.871313169225334,4.820071673939892,-10.551776664249678,-0.19383917414569277,-5.6134122048643365,-4.5701718634498
33.245538102580646,-60.82917779496237,-7.8022336114798385,31.01374837294369,3.9989773869537886,-11.114636170551536,-8.594446853500036,7.999442839433416,-14.793575697492335,10.460505345874775,-6.834793183884618,12.642361597848128,3.816129055247204,3.4181108792986197,-14.602585203356929,-2.841083004323739,0.7240471671733092,-14.381621776303257,-1.708182307096789,2.8077797580114843,-0.7925448925502289,-0.5405033580046809,9.415238533370417,-18.51481133852036,-1.2757850136393325,0.4280804288364233,-7.44695242140783,-5.394463529159431,0.13280555839568428,-3.829606048157737,-5.077656010812943,17.081203988878077,-15.443278037247893,-4.058876481345748,0.254261814161307,-8.985526002353813,-1.3155415818127103,-3.3723771139343692,-10.269591676599516,-23.311583487379902,17.595272587390607,-5.8320468974032,10.341520467900638,10.799934879901352,-1.1869832341987359,-4.822956383871609,4.908638954491314,-10.10006099531277,-0.028620692192187252,-5.673764292711454,-3.9305666305896447
34.25883538746432,-61.83613674168285,-9.140190514343688,31.36121523724854,3.7093996873165374,-11.396850072068405,-8.445959043531042,8.026611458298396,-16.64668205606321,10.581197022322584,-6.954903965324539,10.97594536559157,4.010784165833143,3.5161554328120235,-14.977314133034218,-2.9029541335139952,0.8086405064235024,-13.879542148506422,-1.7850694887600376,2.9896674539646533,-0.478013018347432,-0.49497259259081017,9.790443665296353,-19.119932685410586,-1.2550831010614059,0.43662514399300195,-8.284519110768002,-5.486927546077024,0.14821248216855865,-4.118118950543813,-5.071707426960984,17.17840940342367,-16.241116165117216,-4.1563633863376195,0.38157309683870366,-10.050699898930736,-1.3548510228141948,-3.3018888641350155,-11.040251172345714,-23.59180967046414,17.891046254609254,-5.983855584312881,10.497551773887112,10.578671352015073,-2.872619087590948,-5.017280325221045,5.062028428665866,-11.435576156548512,-0.05457759855024035,-5.766063530970055,-3.4468768108268297
33.118059454153276,-60.04656724420812,-8.373305048856095,30.56383138727887,4.546864586566392,-10.689137235900331,-8.181340562516338,7.803038828490178,-16.610021673630133,10.281048182019756,-6.74595464734266,11.241772757072333,3.867035111998081,3.4129055367432763,-14.058819777394746,-2.9189786375953712,0.7678269884624616,-14.167579232529008,-1.744392173111024,2.910330650584567,-0.31573916299618476,-0.4857755882121256,9.470568281709413,-18.244145607474486,-1.2494133485854488,0.38095961822328334,-7.662935798768339,-5.35376278434439,0.1288732180162467,-3.9718336089219064,-4.9041574819648375,16.83282441361767,-15.922223012365832,-4.011488270668562,0.34883109591064404,-9.300982287717087,-1.3073469632654875,-3.3166769669626803,-10.578715527569,-22.884350022254722,17.37995066255925,-5.751456945353515,10.207852466447452,10.251061772409995,-2.843220394099671,-4.94517596520438,4.841893245552904,-11.158474039248409,-0.019409812440491513,-5.629046576305413,-3.2509096344772654
32.892575918789085,-59.811024197306665,-8.267019963312384,30.26792709165319,3.2111907766441323,-11.318029245639574,-8.291877995956519,7.840547160544985,-15.722590305969161,10.208060366249818,-6.668880685331243,10.697852173017282,3.93438557542632,3.2889544831550417,-16.037755154995423,-2.837289968962054,0.8275630260736418,-13.637161704179618,-1.7047174102793596,2.8435229783167038,-1.3258818623734039,-0.4864948240203392,9.47576359837003,-19.606224135874307,-1.170408579068462,0.3923061149815252,-7.887068589135154,-5.288616592535201,0.14216689912728195,-3.785121971749454,-4.878265652673062,16.485470892343205,-16.69879347297847,-3.9917874109830507,0.37239942952159627,-9.444073328077652,-1.3151789845555102,-3.263908959689191,-10.400130840056548,-22.87859598795573,17.251571655273438,-5.7061411539713545,10.156778781320815,9.814908669878303,-2.658361112309121,-4.891777082190865,4.883268426080871,-10.332710797071563,-0.014690513382005943,-5.532623899550184,-3.37068973698961
32.78667456165123,-59.45707699858201,-8.43447477685641,30.084857193435948,3.3625175899178106,-11.120754708849686,-8.174397287514887,7.751637856347545,-15.243317821998176,10.222454730441617,-6.734165278235778,11.011476353588934,3.8733304234107386,3.100640136538221,-15.194173119346857,-2.9338537128928883,0.8233821533601988,-12.267698094131413,-1.7478012395347757,2.8939353659713696,-0.2784942465674594,-0.43333224650106317,9.62984980326289,-19.17089591545662,-1.1809935965861362,0.457950833257559,-7.007233343841637,-5.269763869242062,0.10972009647935253,-3.649257118319865,-4.880327914614579,16.39115320882793,-16.018937120712053,-3.9966792772233415,0.34253586627580684,-8.409133607854393,-1.240211676286085,-3.194291148396436,-9.680639843834662,-22.740230482446748,17.200658103298526,-5.744312902628619,10.125147272891441,9.858121796386628,-2.9209022634280934,-4.942011937147707,4.881684755504696,-12.018658134211526,-0.06644791980491176,-5.558535768572753,-3.8587668438447764
32.9879485179008,-59.92484530385433,-8.16831638365744,30.44802452666279,3.4652129932724627,-11.129077380624361,-8.28711297017918,7.900993322992306,-15.887974381598553,10.19428649006804,-6.711005801191057,11.436342076182783,3.917770162388864,3.237641473740025,-15.822914089739415,-2.9039974345536863,0.8044967599335041,-14.827060325825231,-1.7596261544797327,2.83587820502525,-1.5471199062382341,-0.4772827776947079,9.274759081002587,-18.433873271318884,-1.1821891813858239,0.4768393603112219,-6.490772650494626,-5.354484537778056,0.06208929949195648,-3.456185113612341,-4.989271552690585,16.42625741884275,-15.842909289577753,-4.018265126082151,0.29796097819019507,-9.673049353566183,-1.3353238158593512,-3.2707863243750985,-10.419210413272662,-22.95828203305015,17.402437513439278,-5.713474799673797,10.104758370446918,9.985947691174681,-2.96190937061781,-4.94659515571361,4.886897940617444,-12.431541621860895,-0.0806798898796638,-5.545055088342392,-4.168512886815228
33.14548815156835,-60.23875254781265,-8.513882040335973,30.47004882915927,3.5232982601189593,-11.10051567045898,-8.300204696418739,7.801441734406822,-15.939647450565639,10.386622787146772,-6.858438507829672,10.414106110850055,3.9350653272743124,3.186646215974801,-16.13015936951543,-2.7928139932841813,0.8991043367160579,-14.448235564683422,-1.7285210000859983,2.9569023040166833,-1.3151544247974396,-0.4211614103228771,9.66828610106671,-19.872577550319384,-1.2540422953954022,0.3956134268725693,-7.586207964941512,-5.376646726986031,0.12410254324622882,-3.7608570349587254,-4.835863225570817,16.448149105101002,-17.05131717382338,-4.051129356804988,0.31624671778190905,-10.067869732184915,-1.300713754992895,-3.1745071525228012,-10.572914615920604,-23.029632487809113,17.472913045099684,-5.831981002945568,10.322615572640663,9.852877340265882,-3.4950338103035516,-4.992958751792905,5.146064371843097,-12.763643883670346,-0.20402683169342317,-5.564711916110178,-3.917403233699267
33.48738134012846,-61.00754835007691,-7.971938707347644,31.023974461540334,3.7029151756210026,-11.375273408133106,-8.557090614266958,8.001542939358368,-15.840098061109536,10.475553983113738,-6.881721145322055,10.916647814940482,4.064525002969298,3.3205739258666322,-14.37271886311637,-2.952170866252422,0.8678606066954746,-15.103128463334507,-1.9017315583882688,2.9361328293613447,-2.0097600220630256,-0.4040948403160094,9.426767043113832,-18.16157277678308,-1.2694523942594194,0.4397434198531797,-7.2260327761084,-5.382522820659169,0.054565476203795156,-3.9962173171099624,-5.059628195964757,16.537382394893452,-15.2456872078751,-3.987328852663604,0.38277416540680553,-9.903227724485536,-1.3878368917211776,-3.2644725759882416,-11.25363345462936,-23.343678310775925,17.67262740116451,-5.749571997322524,10.408036133035099,10.156865145430508,-2.337243899540779,-5.1081968818966885,4.95768391206325,-13.377940397899366,-0.2795568107789777,-5.682584511674432,-5.073206007363247
32.93413567370795,-60.64216182352155,-7.455410067111714,30.576099438997527,3.326441467303877,-11.296083925731137,-8.296938466518496,7.863003160239617,-17.45698191485542,10.428973690876676,-6.8003612065995815,11.24390998829359,3.9312765421792197,3.2954852096326235,-15.339646567144628,-2.845393987977863,0.9210770828912865,-15.472674713431678,-1.7678071408955438,2.9172042706404215,-1.5773912169465254,-0.48274481253931745,9.507370970922985,-18.957248172737625,-1.2112894124481859,0.3540626537618294,-8.108866387207252,-5.408491771497545,0.09695891416886937,-4.124983287278928,-4.866721426133918,16.833794550843958,-15.96503812227474,-4.006033105988297,0.2980389848249472,-9.319221518210496,-1.3509234460512054,-3.293846675107277,-10.613844683024837,-23.149885030039602,17.550954859496674,-5.8437342268051005,10.413362308253673,10.596325305993238,-1.6315728060324852,-4.938391918413898,4.974366297546972,-10.51058884500744,-0.07889077986311004,-5.588464497436502,-3.5870684473045746
33.255510438332394,-60.92029530708092,-7.959029541346506,30.929528839855532,3.7556603023040016,-11.246782791395754,-8.43068451714422,7.892962020558936,-16.528769474551776,10.583047515838588,-6.870208717347281,11.902447165753065,3.944051614025779,3.5173584643269984,-15.145292297768075,-2.7786335265104865,0.8651323006489892,-15.870566499644923,-1.7636600150607384,2.9509659709767497,-1.5192113764806627,-0.4748541796219093,9.600370705192171,-19.23407570945697,-1.2232147995848275,0.37835760540771907,-9.131396755588309,-5.474484692463052,0.20055613667435476,-4.489148951381466,-4.909181178175673,17.12797958118413,-16.21712803981415,-4.179975111060843,0.3526097342717744,-9.705754084522942,-1.3758607562014806,-3.23174305671071,-11.108938179051238,-23.29298516782406,17.536205511998695,-5.813879301626703,10.522190898668471,10.623520489440939,-1.8025019588595939,-5.044744916660291,5.081867684852661,-10.674420567310527,-0.060672703678011246,-5.607363079998461,-3.2299141857276656
32.64016189984911,-60.32006959431012,-6.939395946396069,30.537809344072453,3.8638654357569933,-11.202244586227046,-8.326311702871061,7.902286208147262,-16.489037450922293,10.356558494439012,-6.689530599016211,12.027129646257618,3.8842505273990207,2.939119773468001,-16.10653879645218,-2.8301513655553947,0.8112328455720655,-14.171761358758992,-1.72767727445016,2.9691712663494614,-1.9142192000592455,-0.5588682220384006,9.366863890172587,-20.177059163696264,-1.2223502578272767,0.40552856069485554,-8.132562047301255,-5.25055143910772,0.1794248211862798,-4.031090018509453,-5.04259876531048,16.7123392613577,-16.56538297801909,-3.9645252687786425,0.35429775143317005,-8.429315159618858,-1.3289978351757357,-3.3414541463056135,-10.13889224734863,-23.08330535888672,17.397686004638672,-5.869557062784831,10.229090481225922,10.480568632482713,-1.8852980786577695,-4.9057743883805704,4.889063117604407,-11.136274010266447,-0.017714373947405663,-5.562134995973833,-3.3860419241171376
32.556914667126755,-59.49801496793892,-7.681437237827825,30.142133538093884,3.2305445967815865,-11.335829805752061,-8.205884050097572,7.7897130570704105,-16.810742222713774,10.23216464993397,-6.620740796690424,10.450627895366607,3.8669869609846557,3.5189640702854583,-15.54361021629058,-2.825305892339428,0.8550448896694451,-13.815253552049215,-1.7787564358553274,2.9117367596677908,-1.520489653319567,-0.4638024466777899,9.570930420243998,-20.7181862393187,-1.2262167143193548,0.3719322793876474,-8.511832801572783,-5.304031155253252,0.1654876654953398,-4.244215318601144,-4.852346458246691,16.536149412927067,-16.965677749127465,-3.9837944680820296,0.37911507384568327,-8.68575212026223,-1.3206671657441635,-3.237602839269512,-10.38614792553027,-22.760112762451172,17.151326497395832,-5.714588165283203,10.206697424737056,10.283397197766375,-1.8455229972895102,-4.989675494000485,4.816961559582032,-10.934364931652901,-0.06562362377293002,-5.544265197448659,-3.018783960069099
33.22197705363093,-60.833433816356624,-8.183892785009556,30.60825914787311,2.772131657151917,-11.766764598036945,-8.343968771909374,7.821621039178578,-18.240932758083225,10.316068886470426,-6.755385706106874,9.908574464143163,3.996844505590893,3.2625023343857116,-16.1813244198215,-2.858745977923583,0.823930362272279,-13.87886137660371,-1.7056685196963939,2.916939788881448,-1.6261162241880485,-0.5366277754087415,9.673541654591105,-21.38461052434967,-1.2484955849868096,0.37519762131399575,-9.265478854406018,-5.397770167178322,0.20251767641296511,-4.534500861873338,-4.977701858120544,16.966570745516787,-17.758938763659156,-3.983606502003615,0.3919959974961924,-8.98867714168023,-1.3347220521012098,-3.2899867170776282,-10.558089561758857,-23.16334279378255,17.515706380208332,-5.877965927124023,10.353956453723047,10.634111977700734,-1.6940358411557066,-4.923505208849002,4.884966481962098,-10.162400088761373,-0.015851753637978926,-5.571610735583076,-2.8234773546564935
33.580988051842176,-61.73610840855042,-8.148725118546492,31.1545329332539,3.972685350150036,-11.298099164106235,-8.255490115487108,7.8867416809764235,-18.845875806243136,10.454437238305637,-6.867235359888198,10.340838393134012,3.978618420390332,3.3110400214032665,-17.30611888517311,-3.030664223508209,0.8893995221099996,-16.034933292019712,-1.8504412482399968,2.982822301151973,-1.2909483256673413,-0.49183342389648943,9.670096427270705,-21.936697580247692,-1.214678117113252,0.49058123588085906,-9.37366003365124,-5.573001803442573,0.19445301507215973,-4.357164191869847,-5.064544307833908,16.913079701156814,-18.59745130685153,-4.210422042476307,0.18574854828829213,-10.646607765112394,-1.3043336425393728,-3.3279341078609423,-11.162847636207774,-23.520584106445312,17.79047393798828,-5.837622960408528,10.507211669160261,10.375042951746012,-2.9544422433412145,-5.046841394541201,4.9330414696213145,-12.028659869385168,0.042448421675242064,-5.7340920255665395,-2.244298941909711
34.25112525147483,-62.69132771111877,-8.396966787800373,31.66989608571743,4.071493881696092,-11.373396078505202,-8.439030609324947,7.947413485449842,-18.762055847164273,10.635651871795758,-6.8992652912915675,11.01766767202596,4.136415033398456,3.1930290590996058,-17.722222848112235,-2.984515008603939,0.8479527968243606,-15.084810987506453,-1.768351038382143,3.0354261673160248,-1.1098689786569786,-0.5451531800905361,10.018393415583617,-22.317084877895805,-1.2869356261111917,0.4623410503935388,-8.982577546892626,-5.559063279740667,0.21678249357181958,-4.258968528059321,-5.128519062840468,17.411086881888767,-19.02111456179078,-4.172461643314771,0.35858845968476033,-9.840195903762455,-1.3820054489727045,-3.33169940728772,-11.076210874133379,-23.855444590250652,18.15306854248047,-6.013902028401692,10.641199327657889,10.7063953128307,-3.366883628021766,-5.172525460423201,5.040804324433073,-12.184729999522906,-0.013559840038106502,-5.703170853407169,-2.411613434018391
33.43992937727099,-61.507147862798625,-7.9908062400015645,31.12181074041773,3.8923319081068666,-11.17938062218785,-8.42294336967858,7.836757312593253,-17.50790060393404,10.649116266170545,-7.01146179636133,11.842591119223036,4.02751587124036,3.377537490251735,-17.579898306626816,-2.8369416628190454,0.8723590553865064,-15.126819402108737,-1.791862235386702,3.070332779020261,-1.3328204081357098,-0.4549906454596702,9.874813635634892,-21.939753261667533,-1.2789723479326696,0.4323280971170212,-8.93097015124114,-5.474080582498762,0.17134925430730344,-3.974009119936749,-4.9878983564012715,17.170718788378437,-18.485200377696597,-4.1306259716676825,0.2825335395005723,-10.139926479565263,-1.3518134707815384,-3.288306226097792,-11.103498032142776,-23.55773671468099,17.842061360677082,-5.891580899556478,10.46485648693748,10.42872069093212,-3.8420708730735527,-5.048793157654816,5.108859831078704,-12.796581579260424,-0.1350776533381931,-5.760205617877934,-2.2766509988808217
34.96082735524682,-62.59027146647525,-9.595894219244528,32.11377260879291,3.7975294243979074,-11.658009181498187,-8.668162623303614,8.031320573493298,-20.13484800309432,10.6384394838659,-7.142836232357996,9.621791107488933,4.094763972679193,3.1131504170161506,-20.01301035603832,-2.5919450202156553,0.7955088260869334,-19.089277561723794,-1.8763299898170829,2.7376576952286538,-4.205561949529968,-0.4563165494473404,9.359092676485758,-25.973518223947753,-1.247138215918665,0.4970474467925318,-14.289862264265503,-5.644858430945547,0.1979319475778043,-6.278642375843734,-5.162597887064198,16.725290913511735,-22.72428592219975,-4.460625741625069,0.8122239428141715,-15.220000136941033,-1.5184548400554103,-3.1192615678859497,-13.7536031845626,-23.900672912597656,17.761308034261067,-5.814892450968425,10.469982202183902,10.1635350568524,-5.591487676757303,-5.214388672914771,4.919161870328583,-15.335598364808087,-0.12673333815827628,-5.722590404309849,-3.098313913856833
33.04109943317525,-60.610138057351215,-7.434388669838281,30.906955158033355,4.088191483751134,-11.12315132492918,-8.413750068813377,7.920089303087611,-18.445460752127175,10.362173608902431,-6.7395719683124184,11.06573306762762,4.0012645773124085,3.3146284479378405,-17.281609229621942,-2.7215124569116385,0.7091052021621184,-15.459992073297547,-1.752781037249017,2.955476853105271,-2.800608171043034,-0.457230808341218,9.355147139839737,-22.16154030336075,-1.2595045597608956,0.3714507975578499,-9.101097300009451,-5.33533167639703,0.2500250402976271,-4.300770961387568,-4.9832022861813945,16.68083768514566,-18.685069400827903,-4.024373699607721,0.507927307996288,-10.30157393148036,-1.3538915984740758,-3.192865184345969,-11.391084532840901,-23.290491739908855,17.52367655436198,-5.839100201924642,10.228731843440341,10.195863735843732,-3.4472692453655154,-5.035321190926875,5.0728201519898715,-13.226261201883739,-0.02881986370463517,-5.651171109754259,-2.3187914760164596
33.25117256733974,-60.666436454000404,-6.863164395618511,31.21838822324574,4.7391481014622725,-10.945393167326785,-8.631690973107633,8.029717999826445,-18.097841060752867,10.449109044842947,-6.537254643781751,10.962411654711746,3.840457037583158,3.016613394752413,-17.089427809201094,-2.6646610565827222,0.7602643563577511,-16.086075543549303,-1.7766561300484414,2.902373779595233,-4.079180098575185,-0.4323710256411064,8.909966610593182,-22.938799638368476,-1.104671625133595,0.49537066253519807,-11.382786256905225,-5.399357006158119,0.2694959376953578,-5.78933251784628,-5.024012022069071,16.24673910607267,-19.553793426928664,-4.05335451438735,0.7379417046264024,-12.084050451582982,-1.506388393029613,-3.0936469837062717,-12.909499135661099,-23.290570576985676,17.23236083984375,-5.5530351003011065,10.069609530264453,9.780541330073099,-3.8738706335719635,-5.163781235520763,4.798819718366441,-15.787188332420897,-0.2720260853694236,-5.589489734807983,-4.172696520410056
32.47183877847056,-60.13284622660299,-7.012852031922101,30.507452663002407,4.2269303764839234,-10.917038683617788,-8.29842498554933,7.7844763852363625,-17.617731268408594,10.375227730090183,-6.685210118032752,11.434773820742734,3.8633499678494245,3.406810840436757,-17.026241501338394,-2.8560228366941707,0.7971747040421538,-14.752915040991331,-1.7143356121089557,2.977480785000077,-1.7394768849499158,-0.5433557687800935,9.453439503873167,-22.033900392704847,-1.1933058786317918,0.3949503874792726,-8.499440125248993,-5.297683470060247,0.1764880190911872,-4.045375823486846,-4.979433387669174,16.5742444886372,-18.834483364779746,-4.007355154202038,0.3781798162509827,-9.4993182437648,-1.3877926905834925,-3.256949734768311,-10.688541468493057,-23.078657786051433,17.32839584350586,-5.837070782979329,10.164438280846843,10.350787720719907,-4.168541797940899,-4.954745039814306,4.863992270666961,-13.028194849373447,-0.024003786753823596,-5.639537318253525,-2.1923769402755613
32.70887427331946,-60.4180004015353,-7.24560500841415,30.635498411013554,4.405458070703621,-10.86477733657918,-8.37746459681386,7.795844332295463,-18.01943613283144,10.35701900967117,-6.680360625893669,11.016480299001799,3.9215943065458596,3.378333040447236,-17.614960822238995,-2.80631074502818,0.7869896454898546,-14.619688808081685,-1.7427284839449377,3.00687786703203,-1.6830909973289057,-0.5235310626903941,9.569828508710456,-22.95759567708211,-1.2396881874606505,0.40457358448926994,-9.121353183906253,-5.395657708514164,0.27698120770338513,-4.323790265504002,-5.015542198544425,16.492926733437375,-19.60151618859804,-4.06153059229259,0.35359262829201166,-10.008130575022129,-1.3744924142206312,-3.2227040611602837,-10.914020106344594,-23.2361577351888,17.51852798461914,-5.843239784240723,10.249475121731804,9.703192419923425,-4.334227787123954,-5.005750450947487,4.968705728217835,-13.451610069909393,-0.029117682387765326,-5.572321085361804,-1.4239242827292253
33.01772505302169,-60.95681851008333,-7.1458992112147905,31.00498819733078,4.4313278509268095,-10.941917796695577,-8.417151636456095,7.886876000530054,-17.426964286075034,10.525206968067954,-6.776739044879085,12.12294966715415,4.044410657695797,3.5793391776207653,-17.256008921477314,-2.9197829945065172,0.7805233031551531,-14.722336508349317,-1.7387351946691718,3.0130755396315867,-1.7554882506322016,-0.5152599668247112,9.399723167748133,-22.38309570563564,-1.3110211604010131,0.41874715614050984,-8.830596816750374,-5.456016894811751,0.22558419057732917,-4.4057215037398905,-5.108645503323873,16.487555324432805,-19.266367833784305,-4.167137197395874,0.45577693594520463,-10.20800127082528,-1.345443446739554,-3.2558276087826172,-11.048573346367014,-23.41687774658203,17.725257873535156,-5.918913841247559,10.40015379395062,9.949632226140492,-4.734085518010755,-5.1232915431593735,4.980153633811139,-14.37160862664397,0.025283411229329433,-5.572940078296068,-2.169496203581998
33.72911017241219,-61.82832891385024,-7.914510801528242,31.490585387962145,4.434968976768849,-11.133081506419115,-8.677087657703268,8.02408275000137,-18.455510433563024,10.54902079066869,-6.873460924208353,11.493647796406561,4.096488674437482,3.442503214989017,-18.89559817988978,-2.7519518837904364,0.6938251714608606,-16.312297139167697,-1.8409884213459435,2.9222392788683735,-2.401714572865514,-0.42535182767184293,9.515168211391819,-24.56412290031625,-1.2637959115119857,0.3671636803355991,-10.265714455195782,-5.528473338886645,0.18149366703192438,-4.805177059668276,-5.1042464349269085,16.935768977063663,-21.06292834671927,-4.145956678428374,0.43733651214477637,-11.501352346510577,-1.4478916663142163,-3.234236796428265,-11.805241829224181,-23.682576497395832,17.86825688680013,-5.905242919921875,10.456436409085411,9.96296827197939,-5.061250009419144,-5.076796866159544,5.049276075684546,-13.841462757972694,0.061014216642167884,-5.630427902683564,-1.5542165839234519
33.44220756701369,-61.58290784501233,-7.381044005883507,31.32499611204553,4.127667096157558,-11.319581724484413,-8.528494850335543,7.986103129991096,-17.838727661932143,10.6124844072714,-6.846981103198544,11.35775032495971,3.994943232367721,3.3954894419347657,-17.129978990771182,-2.9312435867237263,0.7971928030438183,-14.677986083262754,-1.7599791894396972,2.9265313123125494,-1.8506995043284464,-0.49975352191169303,9.472373969375619,-22.518917000976217,-1.1664857678420235,0.37640755780750657,-8.797898632026525,-5.404313959753346,0.14235251588490264,-4.15984421903453,-5.073321970921697,16.843263227846084,-19.297611014956328,-4.093482241975157,0.4247498931119516,-9.630798894976458,-1.4610605931719682,-3.279469632527981,-11.112244889172723,-23.561651865641277,17.69501495361328,-5.904080073038737,10.364960912017526,10.28186199134593,-4.441817991852092,-5.14961540781833,4.977858605959288,-13.535871918907539,-0.03617488974908168,-5.742966063140792,-2.1051994608851334
33.693547757102074,-62.19035742268121,-7.604697608396514,31.4964525046075,4.074002246890653,-11.429289240990704,-8.532620576124799,8.048953081337709,-17.818770073794635,10.673647586343227,-6.81871045372785,11.545627770128997,3.9778581312582744,3.424736674882297,-17.752459845917436,-2.9589618944295055,0.8401673529937987,-15.626661769155996,-1.7509391126398341,3.0311268637191247,-2.013207339417025,-0.5354273191038705,9.656807617968596,-23.13171458131716,-1.199779323437764,0.36613927295785736,-9.299576124682796,-5.471464906491138,0.23796912895222297,-4.507205329383741,-5.116702151882045,17.02103060676262,-19.755656919803307,-4.160749503813132,0.39307258452862515,-10.119898569831058,-1.3553620033318843,-3.3487533835745276,-11.239968336692508,-23.796844482421875,17.80803680419922,-5.968154589335124,10.506526415270217,10.399414313724675,-4.335316908720643,-5.143667516499005,5.015151499027078,-13.670433390694265,0.09292878616075119,-5.75841108412263,-2.132149629140298
33.08726784348462,-61.100095506554965,-7.273009727340786,30.983484668101667,3.8444002052515067,-11.315462550412542,-8.422160073077805,7.89052363487033,-17.31186351209178,10.53724058122822,-6.759312471182248,11.405230865222244,4.0149126856862525,3.2609949520733217,-16.937605760098606,-2.945876277989409,0.8434382532642702,-14.550059197379838,-1.7502095085387868,2.9782468822248345,-1.4085421991765583,-0.5514005070309178,9.658939379168489,-21.490826024479187,-1.26053259001709,0.39799158969071596,-8.383447385730308,-5.36178942478544,0.1433012182910949,-4.176377421405265,-5.09562284654158,17.041818941602227,-17.847179890192955,-4.088522478600379,0.4875473321923965,-9.02426825821315,-1.3547699109060989,-3.2763787245314497,-10.632206078253194,-23.384502410888672,17.63378143310547,-5.937833150227864,10.382257407648655,10.880346814766746,-2.869868432309852,-5.100074946135361,4.877451691050397,-13.036788127803462,-0.03847401987427237,-5.628752433809683,-3.228878820051335
33.40751950043645,-61.68204880605222,-7.357327776561412,31.234743220992257,3.978434562349739,-11.389414302681852,-8.45707054179138,8.009312835802445,-17.224781120622428,10.620163041791496,-6.827897561177785,12.210397632917124,4.047789169161119,3.396338508719893,-16.56991399962641,-2.9574081113081228,0.7692770577791993,-14.919788473719137,-1.7363928995746243,3.0080460863825986,-1.4365764116449864,-0.5002679058229677,9.806882798607933,-21.491713174263452,-1.2958666314925347,0.44995618473009275,-8.968963370248064,-5.486736955009998,0.20684825844127175,-4.517522951651404,-5.103902675972371,17.03617485895256,-18.133240217377256,-4.1145576738835095,0.38186785591240385,-9.65210070705745,-1.360679478402495,-3.3294485242457523,-10.869728215569873,-23.503251393636067,17.820749918619793,-5.92653242746989,10.53618911028954,10.531502828700722,-2.627041804689737,-5.140972101322343,4.911954866843184,-13.313959206441174,0.05852778172791678,-5.669030802969265,-2.990831734880407
33.3051078185374,-61.575595609818514,-7.645817161081536,31.037833675250514,3.645359515034053,-11.359958292417803,-8.496907202488762,7.7322289277867355,-17.966519188296676,10.495018374806206,-6.876873424302815,11.410839786570419,3.9896722709751202,3.1265245880249304,-17.536332398072044,-2.952742418434351,0.8938510097141515,-15.284682865809904,-1.8018959495057587,3.054565564963871,-1.8672024111884291,-0.5718920085971605,9.862385595315052,-21.926480149036802,-1.2047457828654844,0.4697315203879069,-9.807779907324088,-5.542732416631645,0.2343820217835801,-4.506939777795061,-5.012517385551406,17.201562921455412,-18.3541331467631,-4.190166176886454,0.29787508747409336,-10.291122664308633,-1.3899494383289,-3.1908121933387643,-11.47002652214943,-23.469122568766277,17.713846842447918,-5.896865208943685,10.488761098556202,10.476724543486478,-2.3334574953385157,-5.075231581436787,4.98169896887216,-13.636371443793587,-0.00041259671912630483,-5.689745601698337,-2.8987583409520354
33.03261290353422,-61.15336708374895,-6.979385379214908,30.994378959521196,4.154652312613184,-11.214427775197484,-8.390897560715402,7.935814183870253,-17.509616862507077,10.546244377271286,-6.808295189389145,11.784738414644282,4.008937633326777,3.382482943404572,-16.166099039892387,-2.922407443181379,0.8375509276560504,-13.886090248687283,-1.7278365555226405,2.9726138708251977,-1.3635970316705432,-0.5304752948731176,9.621276044673268,-21.009586414020934,-1.2649587809567375,0.4538824446611694,-8.693770530145018,-5.481895106004551,0.1823628711476745,-4.369995037419013,-5.077319489977856,16.840627237970086,-17.520017127865714,-4.101888404935237,0.42162998711372995,-9.538384794220159,-1.326107650831734,-3.2991984576162516,-10.870629589554312,-23.344064076741535,17.67022196451823,-5.831250826517741,10.445409849417144,10.498066750991669,-2.0714743490784,-5.107569391891645,4.9122176991227535,-13.80290784829947,-0.06718349372333728,-5.591840751396145,-3.7344485235938314
33.16066398021285,-61.4064077765654,-6.8083255864241705,31.148111954407863,4.368143578878135,-11.10865437363921,-8.496386728581047,7.931313752005082,-17.158003969922817,10.572690639846451,-6.735857718712357,11.939068675040678,4.048580559690511,3.2362685192836955,-16.892750307102663,-2.8703728783517217,0.8141435673482865,-14.715353717240985,-1.7462574519742704,3.001032074652176,-1.5295277314266995,-0.5768577752409316,9.586813126729856,-21.564284435642808,-1.2098051587386076,0.4168259926709006,-9.536157774759248,-5.461489604736099,0.24826155060145783,-4.702324760749122,-5.141913270170625,16.93911287939426,-18.019134019981408,-4.082961731346032,0.48281950776703114,-9.728856539215712,-1.3495964902348645,-3.326661730432978,-11.330233025245882,-23.53053029378255,17.68207295735677,-5.940418879191081,10.446993301401056,10.370680405500144,-2.6590531247966225,-5.083443947030324,4.9466604245831745,-14.345422060462793,0.010358397270359261,-5.653614155478155,-3.5039463667758723
33.56299172322675,-61.980825459204844,-7.256831837130814,31.50028677964133,4.234570021872882,-11.314789547991161,-8.612673811068046,8.040040656835274,-16.86107264071891,10.677545233712578,-6.913734226021165,11.797378723507913,4.111620628398856,3.2500643025164173,-17.193157866368384,-2.969073914126318,0.8461612550630327,-16.14124745985203,-1.7595550848475583,2.9793823620467137,-2.8544264642844226,-0.5226926077504485,9.736910288660498,-21.804290927710728,-1.2853794462515609,0.4494585596228949,-10.506916350713581,-5.537661538366151,0.21640685246514424,-5.346145387568641,-5.185826707816455,16.97300401397154,-18.06256717415618,-4.16075946691898,0.46923037426486286,-10.221737145308696,-1.4135897818894003,-3.412595149015926,-11.88429682551664,-23.74876658121745,17.90051778157552,-5.977531433105469,10.56433679135538,10.321658599818926,-2.705048814580581,-5.153206730762416,4.980760183511117,-13.148566586094411,-0.029449122144185946,-5.713428086585533,-3.4074011259277075
33.27046543822681,-61.308307675818234,-7.188660691985771,31.100643985450763,4.18102802606612,-11.18096993800422,-8.427485618252907,7.934321335639274,-17.684471374051537,10.464284669552578,-6.719900580312317,11.485705074286598,4.110739558919651,3.2604450829341594,-17.126798237934512,-2.9031078206783207,0.8370977163426092,-15.298931039979498,-1.7525929404864569,2.9396204017130736,-2.122937030771047,-0.5253406971756173,9.419933811560409,-21.92282219029076,-1.2825169228475746,0.4180613785979626,-9.370026604977665,-5.4430110416527535,0.21810769920241854,-4.649093370026695,-5.116766519940289,16.697391213242057,-18.04385989245328,-4.0429503054041644,0.42910388858832,-9.549912871045906,-1.3778647606446486,-3.2931446760550287,-11.342773505593213,-23.431004842122395,17.765950520833332,-5.9005177815755205,10.468011006906838,10.059724712128915,-2.927772035479584,-5.074200428876294,4.897040141885153,-12.911039898739581,0.021999128511621432,-5.559583405908573,-2.6113004107803444
33.29968278895411,-61.49045584506441,-6.999526369239656,31.339925319988804,4.375580295191564,-11.11338120819403,-8.644647197214892,8.007918000166159,-15.53064494681684,10.70701430606217,-6.8309447765717435,13.57627625911743,4.043342596992901,3.763296230903663,-16.261652689225027,-2.9393739075386134,0.780193753926901,-15.320577714546284,-1.791525406329722,3.0730433187096593,-1.857447430817549,-0.5051889170669949,9.839168736412189,-20.59263792686509,-1.2965752617939328,0.41081471972609956,-9.043142423490954,-5.509605149799036,0.17642603118511357,-4.754318251481146,-5.185164008575119,16.865174543352186,-16.90977058661331,-4.158865883698405,0.3761284164051993,-9.620053314425999,-1.4445155350816112,-3.302106967807537,-11.21179486611117,-23.626871744791668,17.840609232584637,-5.950882275899251,10.564756834825117,10.075473411003385,-2.440078719345751,-5.115946371653925,4.995053255989155,-13.339064482259706,-0.13811201733625386,-5.684958050630407,-3.8921512331178376
32.540272192441705,-59.84906536481401,-7.026401710356562,30.551434489355515,4.566434362007489,-10.684881004156596,-8.40303472905541,7.856485314096278,-15.37287622075418,10.473238434017409,-6.597570949029689,13.324010893151552,3.914239057098922,3.9110436487346862,-14.614798223575157,-2.900301531985837,0.7739046320399626,-13.444808598858872,-1.745581399432357,2.931219276644945,-0.6637766171304343,-0.4564759877229431,9.732550942327693,-19.4707167572038,-1.2353925976403868,0.378026610022502,-8.029938340592343,-5.392400542117539,0.20172591057029407,-4.465053241117284,-5.052398265427224,16.37145176478781,-16.254484926378783,-4.025400470227252,0.48352712384594376,-8.57245393279337,-1.3497190303921764,-3.1786227968232783,-10.451827888255565,-22.96374766031901,17.397804260253906,-5.835769335428874,10.269570294762255,9.426910354929024,-2.4796228887912224,-5.015200042841785,4.894957796812236,-12.707405371527072,-0.11203209293402859,-5.500842604068837,-3.54106679953513
32.94228172250868,-60.83530127145627,-7.05114167739517,30.942922416030854,4.469433425730136,-10.94324142327509,-8.42843481323158,7.91630103805893,-17.23372023719946,10.53321491324049,-6.717849476256871,12.44877526971514,3.939221570112929,3.6452883518720243,-16.6537782255101,-2.916744988902092,0.782855610369443,-13.165913406849706,-1.7953653906200546,3.04684226238221,-0.5774743781959558,-0.4769204053950881,9.66855138169413,-22.314806159178207,-1.2215841831088983,0.36481476843322763,-8.936445149090659,-5.402312432303314,0.20471695800631085,-4.25276877822358,-5.101927738199211,16.420655426570544,-18.957463875197003,-4.117514272687289,0.39679578018307976,-9.674814091274301,-1.3817164813348721,-3.279408950399532,-10.941974646266686,-23.42938741048177,17.64526621500651,-5.92897891998291,10.336481853107099,9.76316269727171,-4.952297809277254,-5.127976988031397,5.038396395309315,-14.553610528543826,-0.02425838546389727,-5.620417450078796,-2.463712904521434
33.285979938212016,-61.20914437725779,-7.480050914455361,31.159335151735387,4.37996719889243,-11.059198482628679,-8.48857963047985,8.00375582234278,-17.62178493543179,10.713000020693093,-6.809934592088396,11.511876047314287,3.9792054154145347,3.533431438240628,-16.77546414084154,-2.987739348660133,0.7234833431197046,-14.111062133488742,-1.8089587311516186,3.000399692908356,-1.3865377880449261,-0.4101676960308324,9.71285059527777,-22.871898189932125,-1.1220497739265196,0.39984311593065636,-10.642118964582837,-5.515031578924585,0.1971893253572988,-5.12792323018678,-5.049939506558552,16.48794941664309,-19.73126382706575,-4.2690817871098865,0.37467649738991965,-10.966352094921332,-1.438700282643646,-3.188208240040826,-11.867680903824052,-23.455322265625,17.76887385050456,-5.904920895894368,10.383252088685268,9.769959507962733,-5.503126011343113,-5.182012160660467,5.126512202354447,-15.020422813518875,-0.14117888339072826,-5.703490482794725,-2.903250815935254
33.253431310524334,-61.16347853867955,-7.515011957901674,31.163623699654114,4.639715115809788,-10.840063905543161,-8.403700172819212,7.856073410416978,-18.08487774810393,10.461875273353728,-6.754017653378921,11.537065064264572,4.0144011533091515,3.555500044551994,-17.345204503039767,-2.9613638809764615,0.7666950834770763,-14.461024819321418,-1.7475798514762408,3.0479388240235843,-1.318133964380923,-0.4573174795049281,9.518227667648683,-23.204245240909717,-1.1774828615719257,0.42437114677726046,-9.928582725927221,-5.539733282946211,0.23368046894141728,-4.744054972064023,-5.075804425909815,16.456552128305376,-20.238712312837375,-4.19770822561211,0.3573270211353002,-11.178646995347899,-1.401801197059237,-3.20465385562041,-11.425623928734653,-23.46893819173177,17.752431233723957,-5.836284001668294,10.375644880774338,9.676902618118953,-6.033952322624543,-5.141477605409264,5.075609105628435,-14.59512068806851,0.03599051879882967,-5.620280913709055,-1.981707293631838
33.92312377883538,-61.64071160299769,-8.424198250464288,31.575477649635232,4.442781599427339,-11.10985588773246,-8.491910331533722,8.02100150780679,-18.85686100591337,10.485867533263656,-6.868614760302186,9.620590055628819,3.9274623092937238,3.2973351783937974,-18.80700559657075,-2.902624860810103,0.7920211065409205,-15.604814694221034,-1.9149513105489333,2.915573112529049,-2.270268586580853,-0.5215828532697558,9.524649287553732,-25.331770018365393,-1.1860187170903604,0.4171943601515921,-12.937030688641054,-5.6100411081198205,0.11108721013250504,-5.6290595471588745,-5.077512781320297,16.537962586420186,-21.698564034330783,-4.198016966984676,0.4463311033129231,-13.504159075338075,-1.6075029280428137,-3.251972795833407,-12.842713224441662,-23.56927490234375,17.742329915364582,-5.898579915364583,10.365719034152251,9.204064180316246,-5.624134594666817,-5.146126338565488,4.820551642497693,-15.371048003054037,-0.07168436489295568,-5.699960128581787,-1.9236122936510405
33.66829891598261,-60.90057942234383,-8.806806599252136,31.143544461463126,3.9856069226159554,-11.0372716703512,-8.430988544110312,7.891084998572739,-18.424018468596525,10.4793647538393,-6.7929945122193915,10.618822292748883,4.088013068289822,3.3821416936193747,-18.302114567136616,-2.8486913935348226,0.7252355944283654,-15.215374639222839,-1.7975567530091379,2.850664052658343,-1.4708051635895603,-0.38157741769349446,9.60923902554246,-23.60085905747647,-1.2350344074751305,0.4097576535893288,-10.52096293882022,-5.503514437991459,0.1012720280599843,-5.05159312017244,-4.963092881486221,16.719109210774448,-20.559693671641018,-4.17853927985906,0.4321995140429457,-11.8076134500466,-1.4337632747146152,-3.1502697600933893,-11.810578778624077,-23.27188237508138,17.656588236490887,-5.840083122253418,10.352279253423527,9.792067536457155,-6.05430615807547,-5.1121549238459165,4.983855873025029,-13.878741313519866,0.020798045828269746,-5.5425171282283445,-1.5418482870126429
33.446767677299256,-60.42050335208071,-8.655973211952068,30.899330694667157,3.9064130260340577,-11.307458086770163,-8.364688696397296,8.003257274266025,-18.254607044795332,10.406501653515418,-6.7045354242637885,10.5905207400793,3.8868003317577404,3.401652243054708,-18.18160323114795,-2.8304454116424282,0.6747995928484937,-16.499227703797093,-1.839486704904287,2.8877164761350804,-3.3568493104898605,-0.5988814373529974,9.354447830816376,-23.407323832354763,-1.1177146753964793,0.3813095240734925,-12.70265870145891,-5.561062371579536,0.2830757064734038,-6.0325202018982225,-5.041239131256596,16.05194885141958,-19.543918594176976,-3.9879925203816504,0.6926038143146894,-12.675320143739661,-1.5436182898810227,-3.0761567982874247,-13.769777721308609,-23.08329517756714,17.29520924218268,-5.68725045301439,10.063418747713044,8.914743555134,-5.0203930149099785,-5.073698704712097,4.747153566803077,-14.000179716448647,-0.14438308132384367,-5.5851851258116385,-3.6440627611628162
32.92835371360391,-60.5077872192897,-7.154028562964179,30.84942294689778,4.453058076432789,-10.925810700230633,-8.489842986130123,7.962990318540137,-16.548875755278306,10.58200440200317,-6.7190522211918,12.89433652746373,3.9394970944904433,3.4119858327682238,-16.98407086781428,-2.914472901783267,0.7681181940051895,-14.766177389364367,-1.7517545810966493,2.9822965780863733,-1.8395728364887798,-0.4603608081990549,9.564089137958515,-21.474283941891944,-1.1757730459488733,0.39133295441199517,-9.090650590630114,-5.428340716327592,0.1806730248523686,-4.64293175326125,-5.008158023629388,16.456644024693855,-17.827227618525537,-4.050441046832157,0.38427452436315307,-9.319751509797502,-1.4307703880068303,-3.2028436241016283,-11.455389768549166,-23.29029083251953,17.524876912434895,-5.824236869812012,10.326844324721405,9.734901502287292,-4.049989316616563,-5.0883944375892876,5.050843899205645,-14.210658118850118,-0.12869620368123832,-5.628815908242903,-3.2364444663274163
32.70245379634009,-60.829311992745005,-6.314510930928097,30.933454462044164,4.288377076680033,-11.03838046601824,-8.464033225401803,7.892206997794208,-16.899536561505474,10.594222934016122,-6.741675807551555,12.932144930377001,3.9782856907297925,3.364242263149288,-15.667873913137967,-2.983227128814404,0.8101696545558075,-13.011482300406735,-1.760309336509241,2.9148556150228635,-0.5288248321204356,-0.49040685827710756,9.627383000842622,-20.194737365301624,-1.179471809419948,0.435183220553844,-7.916647446252206,-5.429824924163637,0.13227924637323088,-3.7689650700189876,-5.080381792028906,16.663093143012034,-17.107636781070635,-4.106560971817367,0.4400983766335933,-8.146306448681464,-1.3018662290043619,-3.1964936573596163,-10.810674954829613,-23.245330810546875,17.50531514485677,-5.7894643147786455,10.29600766488354,9.979122398363915,-3.5147909487505387,-5.101224547699893,4.883103054681672,-13.262455265721895,-0.05793723322529414,-5.589110542252622,-3.314504895854171
33.34891691941983,-61.42033655016703,-7.1406576998243665,31.246452416710397,4.202906012732584,-11.240659702481436,-8.509400634494355,8.005407359413335,-16.515994409124946,10.64714945301792,-6.854207807628051,12.721359258505606,4.028484127977358,3.542992301875927,-15.89229513054331,-3.0258052357760348,0.7916736025409965,-13.357434514209729,-1.7363935771119976,2.9760227692037127,-0.8371973809575911,-0.48008313378681433,9.735751157971,-20.788977292613264,-1.3300808740836532,0.4537957347561738,-8.470231830202662,-5.44468814348516,0.16091035176526491,-4.281465419484799,-5.124697119132869,16.850912567875984,-17.582595278855468,-4.09359836017842,0.354329398721046,-9.070787624206908,-1.356883297986646,-3.3250771097470033,-10.963286145343147,-23.426345825195312,17.797800699869793,-5.898840268452962,10.512726302864754,10.072551965438246,-3.3486511810830315,-5.1279218217142875,4.91137102749506,-13.534914291870477,-0.03340433989998519,-5.642483186533276,-3.518898934112251
33.01304353322594,-61.05966068916782,-6.9617872465400525,31.12697424602644,4.379759474122451,-11.00726161977355,-8.322535119988144,7.880000664508557,-17.873250936082403,10.601770843578889,-6.785898310244739,11.948083230604615,3.951402234980261,3.6077523304184633,-16.112339863435057,-2.9706008118298914,0.756978407016767,-13.167598116771153,-1.7162529406963174,2.995144032522784,-1.106445108781982,-0.488206063754377,9.58921028828867,-21.190171833596224,-1.2349286194488998,0.4176338390741136,-8.040069743280336,-5.472653136456361,0.20773354983842018,-3.999500854874872,-5.126553105882343,16.564329086813725,-18.24807637831406,-4.19596163192564,0.37277380264473914,-9.541399195686118,-1.35123808733453,-3.2376255520041384,-10.841079059029605,-23.38616180419922,17.693897247314453,-5.865537007649739,10.40258755505022,9.764154332072648,-4.114222330138442,-5.156412185644166,4.925460100885124,-14.175557936097329,-0.05853131905737275,-5.659944156697801,-2.6196893510909196
33.01251099763066,-60.94767930953655,-7.171774639829866,30.94559377235514,4.057237128708497,-11.067857810282163,-8.240205023237717,7.8403225507430205,-17.878786624198884,10.582236470464055,-6.828699111670407,11.8123022379892,3.928899286225674,3.7965537491830044,-16.827252627735085,-2.938855070390422,0.7808422337498152,-14.207688891008749,-1.7217044759866393,3.0467092831174587,-1.0318596980159673,-0.47563297298160706,9.772105057612047,-21.784475538622956,-1.2296317693729295,0.40455903042574254,-9.061743486564268,-5.4822573625854085,0.1856649268925937,-4.376767646578875,-5.067621807929005,16.605933693821594,-18.742825000405333,-4.203516637453776,0.3982340275569991,-11.03526590375582,-1.3777552043716303,-3.2838016020211147,-11.339617591926595,-23.380028756906626,17.734086137599096,-5.923275240127778,10.414355638538764,10.057528171787533,-4.316644981193382,-5.122909341298164,4.984393329208196,-14.456816773486999,-0.08189454680291185,-5.657848130860375,-3.4379923040915106
39.539138228232225,-69.06967210811348,-15.656651949277895,34.20724643108248,4.3885801060492575,-12.122925207912024,-9.38675193160645,8.673062540393406,-10.878477117739424,10.805170348535285,-7.596881917475497,4.499414186755733,5.5224019022872115,5.9261435190357545,-55.67425997468601,-3.581341434945419,0.3438994897347862,-95.57658446661817,-1.392554519923719,3.1818139133716823,-49.85256187892576,-0.1725059902790098,12.812197685158623,-67.94187573900678,-1.4244028841244873,0.7306272515439628,-111.49274103626925,-10.200975455760208,3.381250752629674,-58.86320667218403,-5.69431107715367,18.142779864454237,-72.72414239740428,-5.896145139901904,1.8777864753471472,-113.37841490291926,-4.815817665260565,-1.2786226010650497,-62.555468353477714,-26.213088989257812,20.270736694335938,-6.972867647806804,9.130236115376254,5.254032645328815,-67.00739035872316,-7.965776436689807,8.707838630215436,-102.46295475749356,-1.8390629536989886,-5.27680977915976,-51.814380793727274
35.78673076750762,-66.38443527390667,-8.116093736249477,33.738105916616654,8.103506084627899,-9.657195217532111,-9.877082684592418,8.63405079250328,-5.627672558004513,11.27064438748281,-7.267995135505579,9.491178975761565,5.343677681950719,5.685221133980768,-57.74085922510901,-3.1379938463859545,0.9383867166166144,-103.64856724448292,-0.8670245410488319,2.4059773652998078,-59.28627121932936,-0.09920453200381207,12.837502211910762,-64.92649239403687,-1.6154457454972857,0.25680323183453513,-109.90298563745205,-10.469575425322445,3.1208618463674624,-60.70379151482005,-5.223314165952947,18.181362829921202,-67.27443461804172,-5.3799286497874235,2.0375504918264125,-110.73872657888485,-4.762319974527571,-1.313281807945015,-63.76736736584343,-25.53502909342448,18.8539301554362,-6.6305497487386065,8.745929721608308,5.39030478299136,-60.61461993171908,-7.224173270978927,8.534986053185076,-103.41808700739426,-2.1129114794678614,-5.136188292617834,-55.077286175144536
35.81639196694155,-66.02602978724104,-7.615056057175045,33.63268033852275,8.84365416037187,-9.394061634542163,-9.645891629383975,8.563235204448944,-6.033279051446756,11.431487292436834,-7.346518276855208,8.1342157783807,5.3916588004164625,6.241825691903131,-55.3512452593307,-3.0358990443399687,1.0446731902844641,-101.97394551770374,-1.207980106371925,2.8040101671730295,-59.18847970765819,-0.2610958529897525,13.118334280112174,-63.087457731914405,-1.6533913596744678,0.5509725486254379,-107.21921663406806,-10.231251175884081,2.999507260847972,-60.3899799346438,-5.014609021651247,18.366934577388157,-64.20242347258862,-5.394908538298391,2.143035083409614,-108.46131018159322,-4.783147250425673,-1.1906947260000234,-62.72563537311007,-25.51381556193034,19.286542256673176,-6.585268020629883,9.03358265341948,5.470320446091655,-56.46944797703588,-7.113520764711242,8.667761844131016,-101.14186573420521,-2.2370559720893977,-5.030157778796638,-54.08544424025259
35.80037693629528,-67.10647844002996,-6.238895255948251,34.29643079571675,12.768198792329821,-7.605461968776866,-10.298657245305167,8.934336811355687,-1.3437671414496555,11.274096662346357,-7.453609858189165,10.859258995747581,5.412657359836676,5.241023952720332,-63.42819842454427,-3.291283947367724,0.9926760366008217,-114.25902635590575,-0.8067821906099978,2.306711546240748,-72.36178930697638,-0.05277284262150792,11.839285476287339,-67.52250866013024,-1.6749712283480147,0.5075974938144213,-114.53906216347859,-10.910102587104843,3.0497087321471867,-66.62895575890185,-5.235909569033218,17.174909108024632,-69.34802685105575,-5.132093839822308,2.0349481325417162,-115.7483112271192,-4.9545446371917325,-0.9299078669492187,-69.0367229076834,-25.60167058308919,19.2757085164388,-6.392308235168457,8.965736507542296,3.4797669012444046,-62.303992393021055,-7.528182491030055,8.783269799878434,-110.3845014659974,-2.3541023641314847,-5.132597885522478,-61.863470055775686
33.840644396226416,-62.724848717308724,-6.3386823949141045,32.33870600761042,11.396248737217903,-7.750595183300324,-9.715339322760766,8.403100016425688,-1.7623105210929895,10.582785179210335,-6.976301380365226,8.61926445354453,4.985387840034682,5.10687291388617,-56.62012385288128,-2.866016513990592,0.9022942866974373,-104.45725422507404,-0.9411271897289359,2.3365386467220963,-65.32133086005469,-0.21184632937208966,11.070610385439252,-61.530880882337335,-1.5839955166281492,0.5986388367220302,-104.31337693171447,-9.979396773834251,2.8987320784315025,-61.087111211687265,-4.903508754921498,16.426777259296426,-63.92872020453782,-5.127597198562939,2.0263559007406355,-107.4218716756529,-4.6341851604321045,-0.9530690872755875,-64.3970366611299,-24.129767936733984,18.059107132272874,-6.0213993888982245,8.461195546186941,3.175873707699973,-58.52829442724941,-7.075963989487916,8.109648379895923,-103.56208519012046,-2.255614553904859,-4.570926161482495,-59.403064475890226
33.92503128223722,-62.949098953488885,-6.343457592772391,32.57088450351696,13.774980644068938,-6.627510438958378,-9.831084486780258,8.379219688068893,-1.3037079297496819,10.441797101517396,-7.088175573899677,7.837589818755872,5.083601805050138,4.59587721811127,-62.495858787644075,-2.8489156820462846,0.603288324768161,-109.61861691633851,-0.7609762019419924,2.1613812898791616,-71.14045159259351,-0.1621890361143425,10.92207494364647,-67.95948458091611,-1.55221439378304,0.5412235087702929,-113.66562130873446,-10.41579006434103,3.2928746245289062,-66.80453590645686,-5.070253152157674,15.883365567060421,-69.99238942267802,-5.155447364879206,2.106372600144939,-114.03285530653748,-4.900564169071353,-0.8299271017571902,-68.58603879235457,-24.104244663443467,18.195576347412082,-5.910389053625033,8.267670502678873,1.7924714038513914,-63.39438904735937,-7.20985979964545,8.315398327648063,-107.88346879044677,-2.348308468905019,-4.611201778139535,-62.321176026338435
33.60771572395334,-62.474268143413475,-6.076740483616567,32.1554932655384,12.968139820249801,-6.727422277138305,-9.602366121096143,8.240396612188066,-2.0861644483679753,10.58301115659292,-6.864239135666139,8.249828278000829,5.111253503973328,4.149107059262717,-60.7173164507222,-2.956500285490366,0.8759260469951947,-108.7656474081636,-0.7609395262463691,2.2141743458110574,-70.38547789515717,-0.22568732130174238,10.11475504801956,-63.48383956911576,-1.5252497812120784,0.4349449608706288,-106.32667720769295,-10.22188111573614,3.0917534382317853,-64.21360351086508,-4.797222108587735,15.578781466457542,-66.40301753430352,-5.011859438153224,1.9894275506897825,-110.21569135220302,-4.6173156708062075,-0.7224225758140554,-67.5814968756315,-23.880482622301272,18.021345493873486,-5.9703876840655115,8.360267104134481,2.2809555327430857,-61.09323180214926,-7.147329432636575,8.23854211501508,-106.49692349325836,-2.413525864106453,-4.488028716726465,-62.86998315916875
33.80576957400034,-62.237785069230284,-7.256848721157232,31.994582049839266,12.401597413550512,-6.990495156845472,-9.47171223522576,8.213508311381132,-3.53451858748107,10.196693166140728,-6.968600332981357,7.255514477716685,4.9950176284812144,3.934766253946172,-60.65196440060475,-3.012923298988581,0.539229729014766,-105.18884098944687,-0.6877543251000535,2.227974276397493,-66.48066842585223,-0.04054507627813173,10.245654796891165,-64.751671098615,-1.557253963337919,0.47567115546487465,-106.50608614860171,-10.002748351966474,3.1225748992732267,-63.151052862614655,-5.04895221715722,15.303220883701309,-68.32269255104735,-5.154605220171108,1.8920661839575683,-109.37315351243105,-4.69348811108727,-0.9970184805008949,-66.48641238814422,-23.65704854329427,17.998443603515625,-5.897842089335124,8.255910029602086,2.0239811557418093,-63.005820455452664,-7.048940163145225,8.067239421441275,-104.48268299762744,-2.1482199894840255,-4.584363735699159,-60.8463980876908
33.20770260127957,-61.499066479750475,-6.150221395459082,32.18401293605698,12.658102100901571,-6.700895702384969,-9.35779851145386,8.245908457954245,-2.5475487985473673,10.280399429359791,-6.758750677746751,6.928141633199744,4.813590611261306,4.017553380095465,-58.510450469956396,-2.766908891773993,0.7898174155978985,-104.09750644798464,-0.7787544288426492,2.2203619167946567,-67.71993088882421,-0.30100957665749295,10.019066393205662,-64.41016415266434,-1.4774747225853935,0.3310257393025456,-107.79128555774177,-10.286373604616688,3.2928069177792145,-64.4126011779412,-4.978015749749626,14.776118616975204,-67.20315980054467,-5.045062279909179,2.0891207147028426,-109.96991871097072,-4.795482314244724,-0.7871414515197775,-66.78361457803366,-23.653249104817707,17.664613087972004,-5.900992075602214,8.122991711341259,1.4096835214101748,-63.0510587294142,-7.106106778185016,8.12720467923211,-107.58254155894993,-2.33061127088896,-4.593634738420685,-63.036447069195596
33.23238170880661,-61.25442422890438,-6.541794851890665,31.79375077880043,12.93417092820865,-6.594543682801828,-9.436511202206455,8.20039935574233,-2.248750527655772,10.194664248013082,-6.778190168352057,7.468663843767527,4.933967970615551,3.9411340502636656,-58.651107337059265,-2.887501986698203,0.6104057364195584,-103.99791692483662,-0.8190603911247769,2.252742518344509,-66.73623402678295,-0.1457120466149327,10.149613352911647,-64.38686524817994,-1.5332981074012544,0.43323171009043376,-108.54053939268668,-10.09001187054099,3.283101149321869,-64.20254865591812,-5.030549222900004,15.260519711602285,-66.40087130831942,-5.022582872443332,2.0485336387544053,-109.46799159030597,-4.723678042313492,-0.8869388453871861,-66.1514097490657,-23.492142995198567,17.792409261067707,-5.867377281188965,8.16540449628484,1.983021283746181,-60.781487579779,-6.975581014624595,8.059679050596825,-104.96075787154415,-2.2148021370363637,-4.548295495522562,-61.0203802716797
33.68459276520647,-62.177867323412464,-6.44544509934235,32.27677977213231,13.072198493702558,-6.696861196802568,-9.570620294477104,8.258573854937234,-1.8797395858653072,10.182805768338701,-6.850660829216614,7.168880520352819,4.894603902839628,3.886584876179924,-60.152351547693776,-2.9382773713992036,0.7865220976565931,-107.60596285689444,-0.7160299833004996,2.22139921423401,-69.73807834416388,-0.2694153052314791,10.21915095017566,-65.68079169650314,-1.4656695015939345,0.3862970482787959,-110.92322414776866,-10.264437386258159,3.270734334359318,-65.73079093191784,-5.037966877638115,15.356752796587088,-67.58428407476178,-5.138046620051983,2.0696891278849523,-111.7365255508842,-4.885432133262745,-0.8366647197450106,-67.883496078194,-23.8369623819987,18.009700775146484,-5.977876345316569,8.257461736181959,1.7782472907132423,-61.73332936985846,-7.160773188129635,8.206508873899864,-107.00905582038672,-2.2906777619241985,-4.405753697522242,-62.61746760438613
32.5259598509812,-59.55670745199319,-6.679569600888573,31.00800764688817,12.145989361825931,-6.6403197539314744,-9.17549268013791,7.887916887774149,-2.8193497492360753,9.828729382840654,-6.527351566623026,6.2210515917232625,4.791237368924427,3.9257402004800546,-55.01089240055836,-2.665062395406365,0.7238797617648695,-98.4779517891861,-0.8514633790041333,2.1846404734910085,-63.38053439885138,-0.30139937616831786,9.857916285258668,-61.789602121307816,-1.4913434473387668,0.4113740932426326,-104.8856112327296,-9.874455798530294,3.19620722966368,-62.13059663667044,-4.885864725131604,14.650083942827322,-63.44790864751568,-4.986052232743227,2.050710691097029,-105.25801501214721,-4.571923781618865,-0.7915048632666374,-63.63397164378645,-22.9015630086263,17.31506601969401,-5.7905928293863935,7.915819674312655,1.7730190096921241,-57.879213565822,-6.7628722888783335,7.821677445372032,-101.32953108080339,-2.172461565228235,-4.335191970634221,-58.98461950054499
33.185632367754245,-60.54735991596751,-7.312975259564259,31.35141570812016,12.578374634598575,-6.669267682205846,-9.278826417047826,8.050514982331784,-3.346854058971042,9.83237399374575,-6.635345481675702,6.168481326955969,4.757114448979193,4.147586745094503,-56.41983074502743,-2.7595065760845805,0.5716419912321333,-100.50290354852677,-0.8451070464504093,2.2662631852870407,-64.57632648390556,-0.20475476064802,10.05841055045155,-63.53981664669477,-1.460760820839619,0.4764216773916219,-107.90900781657878,-9.919465728867513,3.2742881651186457,-63.74088169791725,-4.958610805716682,15.178255213758673,-65.3800153860753,-5.167606430189593,2.0347037585478254,-107.90834854066145,-4.68868896224458,-0.9442874127397944,-65.21359209651594,-23.131280263264973,17.564430236816406,-5.794485410054524,8.035906266851372,1.9283446388617358,-58.79076794550533,-6.847316652546838,7.907733021526671,-102.7390943585491,-2.04810119958974,-4.321711655281725,-59.956573880248634
32.88437585877134,-60.12084694708698,-7.4001535449340645,31.12456515106256,12.221549589298666,-6.657949980402222,-9.184736723270666,7.989737804948803,-3.714834711591982,9.566405601069851,-6.625521609870709,5.564350709268543,4.798028124798531,3.911072209832483,-56.01793650000877,-2.9233760480914897,0.5304824936466411,-98.96144117624327,-0.7657828062982556,2.2275826705305355,-63.04555765585858,-0.14103415700309632,9.924872374237019,-63.13501531321094,-1.4540175834478521,0.5115441791293406,-106.29167137986401,-9.771491464648129,3.243840633033899,-62.768602175511546,-5.038606468680403,14.749475961018069,-65.25464332704759,-5.076216818636884,1.981901511702936,-106.55010449743827,-4.600339957923531,-0.995808898448729,-64.40728166778992,-22.861704508463543,17.497955322265625,-5.751202901204427,7.9664392309400425,1.6324371410548257,-59.870324767825736,-6.759741753680564,7.830645590249325,-101.94242180551156,-1.9287725465220646,-4.24294734123863,-59.510942001834195
33.71435424219198,-62.04419273773161,-7.289200437867009,32.326533476582476,12.052944400241506,-7.047997609857208,-9.2407608460154,8.237296215187918,-4.389467415694587,9.971398338175645,-6.65661623447901,4.332236121320187,4.769509703012535,4.132181810838595,-55.91043047090554,-2.804198975564432,0.6451510954701155,-100.05261443724295,-0.807841303437109,2.1842716756468263,-64.65644104870371,-0.2920317399428447,10.088089154287388,-64.30538761179795,-1.618424818110416,0.3191538342847155,-108.87843253230876,-10.409835123719754,3.3470007921304137,-65.04744415684297,-5.104362219607959,15.153668220731234,-67.27456073287387,-4.9550029853593465,2.1302876215558526,-110.87202067022504,-4.895041164159924,-0.8262014642697878,-67.20638308025737,-23.98309326171875,17.82110087076823,-5.953012466430664,8.070549586524686,1.6693943313306983,-63.77307975284779,-7.0856876142217615,8.095468564613325,-109.27285778411017,-2.347177363262078,-4.6892406053414115,-63.88226019527372
33.55676155654166,-61.79815897123378,-6.831640922225645,32.171189953297336,12.600099397317207,-6.789617857263263,-9.402033016708154,8.169849027136534,-3.2378695390681127,10.182158003067203,-6.7629082557263045,6.295550296642861,4.933259800317409,3.7331998299607068,-59.4583256480731,-2.914077153404214,0.6294620466260851,-105.32485212984723,-0.7413696351099756,2.245668549136268,-67.74313134463165,-0.1995644178784526,10.057338263638302,-64.81390933181034,-1.5158891750361398,0.35696168432437964,-107.72611694580685,-10.129127854745214,3.3177235127328024,-64.1732938063213,-5.083097038249454,15.097348628482933,-67.66066239061632,-5.042476471400429,2.0803414034397494,-110.61633371361245,-4.833737008521095,-0.8314749267569406,-67.52480030020273,-23.729839324951172,17.942759195963543,-5.900659243265788,8.154983584400208,1.558916292759024,-63.48006741495493,-7.121387027855241,8.122660852868668,-106.9924710340785,-2.2798000631530755,-4.52720718803947,-62.77735954841989
33.18916993045927,-61.35178241159851,-6.206107616354629,31.869710574856487,12.67196825571793,-6.638250648302491,-9.367504652238525,8.158409196399191,-2.182072012722861,10.219544275542914,-6.67447866188864,7.092142517855906,4.9358822263633515,3.8682889181021154,-58.44365126554522,-2.8437172787392395,0.8088280792316466,-105.59207951477417,-0.8208343917224955,2.229699329749459,-68.64759973832258,-0.27121176077043935,9.852960878969412,-63.310710615253164,-1.5362086923629563,0.4073016992318206,-107.18717493113014,-10.233563951828971,3.241798992564662,-64.31010867387674,-4.907512514311319,15.052810454804387,-66.13540419895291,-4.940164565201219,2.075522203531914,-110.28689387540742,-4.738977892068469,-0.7359194083852065,-67.36437242324716,-23.629473368326824,17.765321095784504,-5.914314905802409,8.176312519033724,1.7079254056298818,-62.015791826082,-7.101124041470926,8.242530326030769,-108.20120987964374,-2.3816636233140653,-4.422647357734868,-63.56181917277032
32.83158777339491,-60.65797275773203,-6.201259244065714,31.55707663247598,12.665815398223806,-6.543973393826402,-9.345647610743448,8.051812821081514,-2.1129419165210384,10.017218499138192,-6.571036545290974,7.00121103303287,4.832798340105827,3.744062976546043,-58.690970162830126,-2.8122169971152893,0.7035581745903539,-104.90946664133298,-0.6889387146730188,2.160131748614929,-68.0075359750055,-0.24319493471982764,9.876594279579557,-63.75607966087469,-1.5105346003942397,0.3464866912758799,-107.32576159025602,-10.145093172639877,3.2729744199211583,-63.993640305016754,-4.9181112191496235,14.997549832318827,-66.25734766123868,-4.985839599308338,2.058028062645952,-109.85239840816,-4.771732527606215,-0.7796848423082853,-66.76106497533623,-23.288252512613933,17.591206868489582,-5.869718551635742,8.003988531434468,1.7691771236766651,-61.73397302132997,-7.031892397219166,8.065805399207266,-106.8896767710271,-2.3328005973754604,-4.404762773030522,-62.436323205299466
32.392249022084364,-59.766837512999665,-6.2332804402401045,30.916766733746254,12.256307339497958,-6.60504626771086,-9.218003199709958,7.921149506044724,-2.592230150439938,9.851663984114628,-6.410346531327979,7.17425126776444,4.824791445529543,3.5999883721321164,-57.478435569073376,-2.8235933244210956,0.800070060267165,-102.84482440575118,-0.8148919964824928,2.2053371847756105,-66.45922053314219,-0.27165552028733336,9.50859511919546,-61.76575071644766,-1.4792858543478118,0.38031190601623704,-103.28890044877612,-9.844539008545176,3.160542054159817,-61.86500226330767,-4.858743672220409,14.59298640847654,-63.92761290586757,-4.900909036352806,2.0177460103379325,-105.49731245887715,-4.442214679682703,-0.7349562228371939,-64.84218976288459,-22.778859456380207,17.353856404622395,-5.819796880086263,7.998603725848359,1.4031945832511326,-58.97096587111912,-6.904887262343666,7.910403906526832,-102.43247696297631,-2.220888926585679,-4.222945650774387,-60.42756595587866
32.54381670238765,-60.16176525104397,-5.907241665227097,31.08999218494846,13.2510583955973,-6.267953064092612,-9.305420551507714,8.01082554721245,-2.084410981746082,10.052478874421853,-6.374937773307679,7.409605608658878,4.876912529225225,3.7348778313181135,-58.46491943202627,-2.8866319562444445,0.7984672134800453,-104.39389379883158,-0.7590043158616461,2.1947105284617754,-68.14443287816444,-0.21908373078811996,9.60388922984152,-62.415626765199555,-1.5118453817005744,0.3389279256470658,-103.94775901312244,-9.854545897893878,3.143367035683546,-62.738011967622384,-4.753238874405178,14.917863226729203,-64.57338494943376,-4.929924836531057,1.9944211992335639,-106.76899899276562,-4.5156284099453705,-0.7384568929070195,-65.3963920262063,-22.995384216308594,17.531763712565105,-5.920314788818359,8.06643822881887,1.6696607908401564,-59.65300033759572,-7.059124249151701,7.947427748861966,-103.48942940134008,-2.3734898260551813,-4.21130225932836,-61.50197035683991
34.76386781126036,-63.81373019709742,-7.829696687265124,32.884351636845494,13.761935044594429,-6.56968322924142,-9.6685718637104,8.515604225924541,-4.007320041535553,10.048333889572747,-6.8345230116560485,5.259230732224192,5.095613906671071,3.676041177811179,-62.490837967337036,-3.1001044337840273,0.5813069052661229,-110.54605967491595,-0.7717585449369251,2.3704303885909925,-72.32575472258382,-0.19725785746599925,10.032681771907292,-65.78919519237765,-1.502360773865884,0.47098796036414936,-107.80183166108003,-10.056585976506177,3.369549007922702,-65.13043371102522,-5.306904363895239,16.020388058645594,-68.36919450061141,-5.242348902032254,2.0730542204175904,-112.09151235531529,-4.854670290823604,-0.8853585931041531,-68.72375050823216,-24.334030151367188,18.53394063313802,-6.154160499572754,8.530114274558644,1.985288823186217,-61.96211679109859,-7.189806868679522,8.314199241896338,-106.15365855610015,-2.0988023289808653,-4.432741632474018,-63.28320752668467
31.39018389467044,-60.55359472453818,-0.9976723992104275,30.70424980496098,-0.4462163805023227,-13.631996666876312,-8.806864446933467,8.145936161375515,-13.018231405194308,9.788267170735294,-6.926660272877186,1.188917165738138,3.696109737371318,2.2361280651380944,-3.809107741105849,-3.27257928169672,0.5036390902278541,-16.47756745875733,-1.6252666204014723,2.840177930513711,-12.55442116414883,-0.43234211339187434,8.271364711847053,-6.844765209524493,-1.3685420750687929,0.5698306955847371,-8.342620626515991,-5.9651516617642955,0.012852283456340319,-9.66885179180437,-5.130180724536835,16.45230959993071,-5.157349369107741,-3.985558044304677,0.2036458206532764,-13.479610084058905,-1.6936860775905034,-3.092971009736587,-14.650424838644925,-23.002580155514067,17.444435538223207,-5.6713126862256145,10.612316201825637,12.862047873175284,4.777222592955481,-5.2736848465924675,5.386738914446501,-26.536014721323266,-0.5948036131100416,-5.520462848776947,-17.859715921867394
30.730345368532777,-60.40423418335348,-1.8728914780576442,30.234738121319044,0.8321119121822385,-13.139758182337141,-8.623030361966556,7.923013395248244,-12.857165275867464,9.899781694077243,-6.8617582266155495,7.325802727130051,3.3895494182598753,2.482060405137931,-5.891204098247056,-3.0240193743345034,0.9604543807487426,-14.35441800613892,-1.6643627386612436,2.80908460790747,-8.050523093339766,-0.5007015182210415,8.562209710502602,-9.535670540024325,-1.3208424895450088,0.37516870119217405,-7.584793684992097,-5.729195098138933,0.12575715988542693,-7.567516835505571,-5.1335775059075806,16.363970299173943,-8.492602079097303,-4.1319795184811525,0.33943426321448006,-11.031154683960557,-1.2777002694075217,-3.276470936343699,-10.68479319084414,-22.880702828399478,17.488661338773735,-5.785803758733454,10.87887157551629,13.694382867116408,7.2934141560917185,-5.444770570735912,4.947130926311295,-18.72641777815191,-0.5697939309225428,-5.523854236485664,-11.451182495314917
30.275092093404215,-58.42244829294686,-2.8756042675489226,29.462629782304287,2.1205276350930418,-11.644788102760906,-8.573440033559985,7.740767776008583,-11.354154425139939,9.832045878622251,-6.578746024763045,7.9305460324374435,3.5255491397125005,2.773451601768434,-6.835294341248047,-2.837907307929599,0.922016182257475,-12.394881045743624,-1.7013592795435153,2.8423920941461405,-5.71319864688797,-0.59730694286365,7.902981516523805,-10.790347090782044,-1.2376549752338792,0.46658606587845614,-6.208389247986936,-5.463914270469474,0.09568623884539716,-5.6485321276269085,-4.870405153857804,16.09800997724064,-10.150203643984925,-3.9624362193433917,0.3670035264314386,-9.44338885517004,-1.095319072615571,-3.223748086801299,-8.54967258902363,-22.25609766287491,16.987802559077043,-5.59229640805907,10.28924175343259,13.643266229514785,2.484494943313274,-4.8708776019945965,4.731493026363438,-13.562283428112261,-0.31305605408035614,-5.424889997277599,-7.205545533764582
31.066482139653825,-59.46167808422547,-3.1932965157597786,30.18670497395222,1.869779038686979,-12.12422058163647,-8.516425685576015,7.811191888303614,-12.334731582647535,9.937282244386523,-6.677772314961402,10.866591223038236,3.750077496461707,2.6266725240875224,-7.966352360952162,-3.050742841190375,0.7190960375240495,-10.62124820077692,-1.6899375975374646,2.876946372274004,-4.933535473714491,-0.4336245139646678,7.95663050321118,-11.18965276408379,-1.3107782291428085,0.4731866736278403,-5.875301580800669,-5.469623676938247,0.1654215486574768,-5.27502065987069,-5.1569033315039094,16.2834215651619,-11.013535794797404,-4.125096026431671,0.3596351521100858,-8.265969097446616,-1.105264164499521,-3.2924214945636288,-8.24407393002282,-22.76312255859375,17.337928771972656,-5.673110326131185,10.373186272649274,13.52351299224312,2.6281679097269586,-4.920100704779238,4.876400886163706,-12.751166629866049,-0.06964499660662749,-5.529060298682964,-7.2071699612346025
30.541003083423238,-58.83152432743575,-2.8665954489474785,29.9497839750785,3.275301941415179,-11.11253759661354,-8.5769034861301,7.872938299320225,-11.973725362271189,10.466753937794685,-6.633942597372985,14.490800360854452,3.6727079028676637,2.6028293131710956,-6.827062592272213,-2.8796253359582984,0.8714101749851233,-9.89502334834374,-1.7916594914584476,2.8821399822789693,-3.9673915857486364,-0.5533927628415887,7.891420657147431,-10.618549847283157,-1.2627735815295889,0.48323386858376605,-5.231750154039092,-5.354076197100453,0.13583585083100305,-4.557766212135885,-5.031203340357918,16.11724187825265,-9.421358808559154,-3.9825146879370332,0.49352877873874706,-6.033328118296357,-1.1925928743399903,-3.2284426256685257,-8.266676945445028,-22.516397280227114,17.117967609601507,-5.7026234765457575,10.366367766079366,11.863224250122878,3.108172471632417,-4.807376832866601,4.889287715089166,-11.183145836611443,-0.1757590521432335,-5.445072387794913,-6.768059473973916
31.84968615204647,-60.85816407499129,-3.4454325025737718,30.91156240729713,3.035447223878693,-11.738077001150549,-8.857542579116833,8.108970190211872,-10.933490603340468,10.86146305579466,-6.801782167630351,16.244130727507237,3.7895060912202574,2.6808365266398666,-8.758749820700112,-2.9589682192341518,0.8853650955059021,-9.751304007479193,-1.8947132513038492,2.954537517291067,-1.2887009918347998,-0.5658309112158622,8.264822698190072,-11.454863578317264,-1.254478327137287,0.4989545717942511,-5.767074754582811,-5.3943917631297795,0.11931989552441424,-3.6427130076944354,-5.175366140717016,16.86313260550475,-10.534333467437841,-4.087700280249977,0.44035624587241146,-6.2605804389407185,-1.0988988939383253,-3.2368575240657207,-7.797186153456262,-23.279258728027344,17.745625813802082,-5.87234369913737,10.57561574817402,12.737445855401782,2.5497331014058173,-4.916163401040408,4.9815944873021145,-10.449830396268087,-0.1801706385102949,-5.672215565168823,-6.3942401948620935
33.434653317365765,-63.32047411264943,-4.192727498950947,32.2571236480265,3.7655681318562984,-11.795641645678018,-9.364575018375085,8.4290494310342,-11.193362069385273,11.165381011535858,-7.065803002730841,17.354927642697092,4.050531039276472,3.007049406908123,-9.930703258920255,-3.0950943148613113,0.9103274432621923,-11.030914948368839,-1.8423271370768528,2.9862571620918863,-0.8108002391204149,-0.5252848714850947,8.64246339335449,-12.720910432696307,-1.2656422749105365,0.4964089406210858,-6.1646347475399255,-5.522174055334742,0.019636744020991536,-3.4396760353964564,-5.401055875878682,17.127151226389987,-11.665859479022552,-4.195635680128974,0.3827167979845015,-7.2821065581363955,-1.231029525244084,-3.4230650280957633,-9.001798568882913,-24.27270671479495,18.43268770666307,-6.078858466043715,10.849919005141999,12.005243459006218,0.5125505534919759,-5.005732613369322,5.1649661598254095,-11.254476649011835,-0.10073399321523761,-5.76102339928859,-6.286125196784648
32.49561808449763,-61.21595231727988,-4.490257686881702,31.19777922248356,3.9714656741150036,-11.0316431588708,-8.855650727935961,8.023333152151805,-12.298458341956367,10.73874294096651,-6.818812676034047,15.245041086807761,4.160176984007111,2.9702353229587186,-11.594361092424895,-3.0579484484908064,0.8811217989332468,-13.338932077663307,-1.7512203578965686,2.980942985280638,-1.744638352985197,-0.5634951831457373,8.81816053059516,-14.487822044797449,-1.3284517092763426,0.6313096565412063,-5.57255329268892,-5.424705204273498,0.012290962945199843,-2.9309168367034246,-5.242399499244224,16.23121616433599,-12.52710194593863,-4.020170953010143,0.37013569135694707,-8.177780480787549,-1.1582400911463184,-3.255342387288914,-9.667725917774739,-23.426418045369743,17.943350582980646,-5.9272492065761115,10.38485619280195,10.793082615203552,-0.6304875214842455,-4.893133767442305,4.9236434089406345,-12.127929916841415,-0.14065166721524205,-5.580540596277594,-5.4522845312083525
32.48871247115655,-61.157232618032005,-4.434326460790401,31.31647497108378,4.32309864802345,-11.060908613936183,-8.884540661437674,8.165948231449041,-11.742380796701937,10.822542927422447,-6.848467423180979,16.037597512341492,3.792517714349916,3.3591647980280217,-10.431033037177135,-2.9007456518260604,0.8372569079116673,-11.37543718304098,-1.8837187616295177,3.0301337914913162,-0.45895296023554577,-0.5586416435729261,8.945219116283893,-14.294145187503375,-1.3260842795464276,0.45137486771935936,-6.698996184676329,-5.265605107716199,0.09131567180083948,-3.058387841362823,-5.242872487022111,16.392466762773697,-12.029139672635262,-3.9639798267943003,0.3091478238069612,-7.064926357225038,-1.2933227052609384,-3.35750677750699,-9.282502862633685,-23.469512944337442,17.837804773688603,-5.978945413257605,10.534475278003393,10.979601700136298,0.4824678470147828,-4.964892269315858,5.034384882455691,-11.029965409918452,-0.1885120579889303,-5.694320374510376,-5.008113211617611
32.346879508502525,-60.88394328009965,-4.538686784815595,31.12834866305565,4.149187469640953,-11.128225493997684,-8.771756386931647,8.059306778136504,-12.263215876832803,10.766949158141472,-6.850361479992998,15.520659789869013,3.914383080161464,3.511347234769911,-10.168324102186808,-2.9189499735392936,0.8659795226787755,-12.190201077805265,-1.9126476387954006,3.0302725640306627,-1.0337731389305953,-0.511581496748212,8.895665743369658,-13.474327745069466,-1.3108086914298012,0.5593364203825962,-6.672338514271299,-5.320285814695112,0.03641985357413612,-3.141270646401965,-5.268729391136344,16.23091333867531,-11.720175478299831,-4.024321778354344,0.3310864234054923,-7.488021942238941,-1.1728451401091295,-3.3091400434988785,-9.419447815266002,-23.331882221530265,17.796911987232104,-5.834520274830129,10.540885823521775,10.673905746670542,0.7491467786996274,-4.969880304764787,5.011331643967366,-11.530484502492847,-0.24207609259352916,-5.665837041649603,-6.20938431369267
32.247507363313126,-60.55174780003327,-4.888249958010315,30.885573062091357,3.8780597439356157,-11.145726215142652,-8.836924716750525,8.101395242141722,-11.513106910883332,10.614819613920776,-6.776591678491346,15.37708656292898,3.7875825311395697,3.3514942189504318,-11.08076143050036,-2.9009298049050707,0.8544557008524672,-12.075457168342696,-1.873333739877468,2.911731794883718,-0.022585646672529675,-0.54787809814821,9.373336809910887,-14.375667407506299,-1.220403634551423,0.44527700631987505,-6.367212254614824,-5.3189259398498505,0.05628216636927142,-3.105590124909176,-5.086573033282601,17.058563550005577,-13.05129943857022,-3.9440440736247275,0.30913269862237763,-6.7757075318676,-1.1709860573029764,-3.406208539682689,-8.494632828886099,-23.276888529459637,17.58702850341797,-5.797897656758626,10.320387370664067,11.626478966938523,0.5954530278223736,-4.864281217095976,4.886865319999814,-9.797560218646527,-0.12221056604298362,-5.549683569281373,-4.44089031650874
33.817216638581094,-62.9496363559689,-6.115759044792831,32.10786842613981,4.306354417210684,-11.262735827859894,-8.893706079527929,8.162484687058702,-13.966949103487304,11.103234852823888,-7.138622318420765,15.176023887672116,3.998965863483765,3.1688302098070973,-13.484076171134953,-2.9948129821543126,0.8906190497129897,-13.141787452505588,-1.8416812894523522,2.993135931929651,0.0751530433341389,-0.47300887985077633,9.416359073351371,-17.050417076240485,-1.3556867341688033,0.46641946207791346,-7.381264022046882,-5.640974485966573,0.15178221084213425,-3.614158859885571,-5.265826028974056,17.425772751287344,-14.482808223993521,-4.1631494487935745,0.24600131052426308,-8.273743474732486,-1.1820943499899894,-3.480784519043621,-9.717110824866959,-24.23020919826965,18.4378495648884,-5.97443513228108,10.877023252849904,11.297448674443965,0.3492006333036934,-5.0195932113869075,5.124107055122079,-11.304970221442707,-0.19557404519932495,-5.86817282056736,-3.9619254288706878
33.564298453420214,-62.163237639431685,-6.434517717213218,31.893858324608313,4.201913612201472,-11.307810457259222,-8.715862621985961,8.244250079498093,-14.625639367604457,11.011593878681746,-7.050637548714762,13.860526198212904,3.8518051626723815,3.3249687636826444,-13.741171941393391,-2.943770978373834,0.8501150551796007,-14.019776005076574,-1.7712360288222069,2.7776152903894533,-1.4442803977824699,-0.6334510455498905,8.88892483683895,-16.764133769424078,-1.3659270955298037,0.4548629551018048,-6.726319476359467,-5.565940789843007,-0.03674547236093075,-3.190700226257187,-5.052713309528854,17.277922460877285,-14.232888985033846,-4.1680604206781515,0.29592162109855064,-9.341743954356987,-1.1827750430651875,-3.4163180455794957,-9.796385720916872,-23.939732675807022,17.91683309468354,-5.8655080309470025,10.731440219280842,11.407371357417986,0.5258574703481318,-5.134227550638037,5.0696170642248655,-10.70030737320034,-0.16541808207351372,-5.856866329011969,-4.519198862859026
33.34428654076689,-62.01314732103421,-5.877703530168155,31.630163381236503,4.180204068344934,-11.46887183197221,-8.764584234018939,8.206786055524752,-14.448886630464422,10.882538700851478,-6.918158133772418,14.518608324814984,3.950945831540265,3.243281074738116,-13.322098081268079,-3.0027741780741106,0.8380524847090168,-13.210989205384768,-1.9354407916352898,3.063902672818919,-0.5676240837435343,-0.4858366337978081,9.116480299637635,-16.903374271297768,-1.3436045971124688,0.48595360051467823,-6.705715986123614,-5.3527218333018,0.1314212510305377,-3.365639573756002,-5.110586764405421,17.406742394371282,-13.851028486191192,-3.935858376923696,0.28936097042168335,-8.077142124153823,-1.3697493445423756,-3.3676486707645688,-9.786324108669918,-23.737632401768362,18.075502765795,-5.8720282631043395,10.705170032143622,11.27052544145809,1.1972208849107318,-5.067657011124113,4.963146776345776,-10.512813946526762,-0.23743785371039813,-5.79186043629587,-4.4273020954353965
32.03356949590721,-61.13977817276497,-3.7080475218926097,31.399098662344983,5.233476111230552,-10.746541601190719,-8.794922857695257,8.05478050641427,-11.639815688273513,10.92391961696358,-6.77806694901552,16.580927395178744,3.7772139404863645,3.439260176551995,-12.43484949078118,-2.9279787977919463,0.763011157073743,-13.463004028033831,-1.9544172586755628,3.1644812308255013,-1.2276159553401265,-0.5279581057068127,9.459952975514565,-16.76197982195575,-1.3417207642089417,0.5825436866017765,-9.22106949224246,-5.3439392895245446,0.15328042639942663,-4.284412423197118,-5.310387268430456,16.521866908088665,-14.360740475429148,-4.085688633478957,0.3782946435938095,-8.740602765468806,-1.283579204030114,-3.3746142349798665,-9.935377344692506,-23.539700826009113,17.808250427246094,-6.022332191467285,10.515006383814095,11.100745791193937,-1.204312403212007,-5.153932227175257,4.946120315477547,-13.602563479358247,-0.25491944531983596,-5.875874121663473,-5.603390382648403
32.21067540596518,-61.33430023526487,-3.2599412698665127,31.81219922822571,5.8321424800407184,-10.60561035692882,-8.939384147048697,8.250315042673725,-11.315364011320808,10.924482122305038,-6.833243881496952,17.26121186777943,3.98421525699189,3.595155389543287,-14.446449770703879,-2.918190060622282,0.5791902889515274,-15.592286364077937,-1.8145515467784452,2.7974983671629285,-2.808227974872858,-0.4972840634728604,9.238674544801297,-18.284382868567217,-1.3596133709347067,0.6016775991832037,-10.890125945327599,-5.481992609515167,0.015494368956314092,-4.9528607176528885,-5.235693423535376,16.42641896431507,-16.015618266075112,-4.04916570144693,0.49714439752682377,-10.665750215346545,-1.4398912842299865,-3.4668952463139626,-11.174138972727016,-23.631053924560547,17.831109364827473,-5.922360102335612,10.528862970144885,10.908499986267882,-2.257916528315973,-5.0553814895185925,4.880561202637823,-14.513884339696054,-0.20701150691235837,-5.790039973544786,-6.389578473679687
32.312412654320234,-61.55767599169616,-3.642817566052741,31.76096151677464,5.944623974244418,-10.38981255041947,-8.94219947721525,8.20263817322045,-11.208710238089834,11.186145454624814,-6.916594734171718,17.268506152239812,4.042032136089764,3.716816533981575,-13.629675150984378,-2.964317127062255,0.8115015370497624,-15.826966967099617,-1.9809536368728056,3.073928167822984,-2.644576050861019,-0.5380692084394632,9.541069063989818,-17.802484979565854,-1.2856454419957188,0.556989102825106,-11.66343544534297,-5.523703025852804,0.23287545755963102,-5.948102743354576,-5.251881237790124,16.361661188756447,-15.591905252284917,-4.1285697754256026,0.3978375616905088,-11.225809786032015,-1.403816730430292,-3.358944786023642,-11.412907963968527,-23.748667399088543,17.975592295328777,-6.073379834493001,10.633585816708104,10.665302668522203,-2.8241389426636014,-5.31434442783864,5.188607957747679,-16.940367959618964,-0.2882905734521679,-5.713987172614215,-7.1414518294609906
32.690129383492,-62.27887953538266,-3.87625985892813,31.93409914854182,5.707283009147375,-10.642722851312524,-9.036199404422847,8.264662146116821,-11.884965582879756,11.16780887314018,-7.042721684823462,15.883620053286132,3.946772459434755,3.6898761644632354,-13.869180058950965,-3.0116152573883794,0.861058823273733,-17.283787452678553,-1.9285171269033323,3.0263054949425343,-4.065143789529618,-0.6029499235592307,9.401715992744528,-18.09626570655168,-1.3005016220517411,0.516157770081621,-11.8419853144348,-5.5911230098026055,0.2293696813793419,-6.208178246366873,-5.221442764655678,16.693440538004754,-15.95710286269086,-4.213894863047423,0.4289499155266537,-12.055211301718302,-1.4400105836074883,-3.3090914879378666,-12.149042904831466,-23.787806193033855,18.049214680989582,-6.075677871704102,10.63852146857422,10.870220457125328,-2.285868854746083,-5.278523703892502,5.161205025709141,-16.700918353938263,-0.31425263960426647,-5.789715028326509,-7.680076963743185
34.43386129326494,-63.590575788329375,-6.116811186620446,32.94212406068297,5.509228758803782,-11.074795807000257,-9.222600347679514,8.401833709541833,-13.489113546900795,11.305754004328891,-6.955774881275354,14.901274734104957,4.088230689598958,3.6378996981841056,-16.38721415404058,-2.834246993990732,0.8281141389059054,-20.646283755015645,-1.8435544641009345,2.8383422135677083,-5.795674691126678,-0.551520799210438,9.556553359648825,-21.13849152546976,-1.4196305499351787,0.607019911458337,-16.18427352570411,-5.849025098240315,0.2206168146710189,-7.96031031491513,-5.418706128455487,16.929080382606724,-19.030315838952777,-4.27906809575105,0.723005338646939,-16.285749600432958,-1.4642564003947187,-3.272991320030963,-14.112253558564149,-24.4691162109375,18.297452290852863,-6.078043301900228,10.838645054533174,10.414242585666292,-3.3134827696369573,-5.458671571833727,5.062137382615551,-17.144200448085883,-0.4088181994511428,-5.923631427651493,-6.896307454056234
34.406501962972754,-62.43986762810798,-7.567684331598401,32.29866881753528,4.995608523040432,-10.96392691264991,-9.037370134248725,8.165339999362976,-14.216882517571051,11.1805448966647,-7.138526995031028,14.880135666725307,4.00898855134014,4.012551895732157,-17.104452541179484,-2.5244863136562046,0.8171854742079966,-20.994864615512864,-1.817752954287266,2.7679271198525104,-5.015240681734318,-0.638697932515992,9.157287307110066,-21.567175544593045,-1.3492662071456263,0.6509523471990138,-16.984123103737847,-5.753258498160137,0.2629862259601415,-8.179209849669233,-5.272741010873698,16.872065080068932,-19.142271425510504,-4.494530173942381,0.6970368568598156,-17.270636731200636,-1.4102697846369907,-3.1599238309122857,-14.305092381509988,-24.045054964337606,17.8852920360812,-5.93781206166313,10.602580912689112,10.269438876119056,-3.562913267495675,-5.136499019655859,5.025525946463013,-15.884841680126073,-0.3258047017373663,-5.878831103746751,-6.581895993193089
33.317135613345236,-61.095936529584975,-6.671285345757458,31.65045060057369,5.064693443385694,-10.487489855258524,-8.799905979892541,8.129218142670267,-11.882082096451375,10.820755514822645,-6.901300416787237,15.6601878245215,4.0481209359221335,3.7131348082548605,-18.968791884616564,-2.6314699883541866,0.6968281900132648,-23.871724254081595,-1.6566305470953047,2.6768815953828384,-6.484691150592059,-0.4853253214417312,9.14858172391015,-21.772181003922157,-1.4144276626311896,0.6224520421616938,-17.490738781858962,-5.835148171989641,0.26106128277626195,-8.6534195992762,-5.43854840131753,16.227943673657453,-19.37248775260428,-4.255383052933105,0.6731382587447058,-17.724791675912066,-1.4300430476432624,-3.192991521150393,-14.482048705937935,-23.590781175753893,17.55284806411802,-5.9176226358176836,10.427788574756462,10.061052568243365,-4.976858064003174,-5.079177336189788,4.8951177755462885,-18.289839939248278,-0.33760835297710234,-5.8417534284978885,-7.4407354859652095
