40.68289470510109,-63.92453714892928,-30.543771386280657,29.831900652558364,-3.736666066053657,-15.217164322564292,-6.688294464404375,6.958965939404167,-42.31672000321306,5.884028946057652,-5.494041448947658,-47.21064337751014,4.921767148565063,2.2900450637103953,-53.92471647779166,-2.762018636099277,0.6275313632460601,-99.63859966309501,-0.8126655619356568,2.338911385595678,-53.939856405649,-0.4209052636888848,8.89692308697755,-42.76740005643194,-1.4896342038454407,0.5321856082689237,-13.199479635948355,-5.424321357582549,0.21836335950283062,-7.341154726286491,-4.809549853847643,16.1535303080914,-65.9801830517126,-4.9180836066966,2.10385055013052,-106.51609322662343,-4.193670889883273,-1.2607739539668337,-56.8958705307379,-23.249300891889032,17.85283329212677,-5.898245873847697,7.958608858777493,2.053245948793761,-65.83042871097176,-6.898238199194164,7.734815999245856,-98.46688207864662,-1.8429315394259433,-4.5727889110408855,-46.14772039806639
39.62728069932418,-62.02923790883123,-29.71322084835432,28.956297210888852,-3.903555672760152,-15.02974283561467,-6.552910378930281,7.026828182311256,-40.47636736515083,5.873153669366748,-5.16653060191686,-47.26794863033398,4.695194392647253,1.621506114065407,-51.438918194997534,-2.5835503733623204,0.6897416569717141,-95.05054559354865,-0.8350072480348171,2.2814289512465176,-53.38485872683057,-0.38372577742347397,8.814943962840252,-41.92441006324199,-1.468529959698567,0.567899926384258,-13.554185886303634,-5.408806976255931,0.33731144657781426,-8.115100011487618,-4.970843459618932,16.05996203772705,-63.165197447283596,-4.830337133888866,2.0159733800607826,-101.81087217764804,-4.0026480922300625,-1.3147580597897786,-55.70310793184652,-22.49092510687812,17.326822157180082,-5.64274254192991,7.951275195723123,2.1450942636431525,-62.798491058788045,-6.625110161063191,7.260268831527071,-93.41804526357691,-1.7418609678142885,-4.461521947528586,-43.83388614924033
41.62208166431523,-65.67696552114161,-31.318467456740496,30.487424431337388,-5.049399642691152,-16.249681096605322,-7.014272669310128,7.211981402853392,-43.737809064504546,6.026201781947655,-5.4586281316853595,-52.06753207174872,5.177513982830774,1.8501837714574279,-55.16665156215146,-2.836677158343072,0.6052420732917406,-103.04652050199593,-0.8522160850635764,2.4359440393230107,-58.945954788726375,-0.43984462195545165,8.655128648402501,-43.302437414551065,-1.5423811840131438,0.6776150552272826,-11.732417137243262,-5.679815464867224,0.18244869526186147,-8.616067303928377,-4.932580241965575,16.816462003905105,-67.29865822223395,-4.94488297195407,2.029554097502117,-108.91861900372002,-4.374833573527908,-1.38668605438051,-59.885008736783654,-23.690023623013293,18.115212733687812,-5.951442290389999,8.297001343214307,1.5473484599965917,-68.8393316428729,-7.102138398239919,7.638371768151128,-102.2566868597218,-1.7432891249077453,-4.728309969262674,-47.77201586963975
41.350998562690904,-65.47760321274647,-30.43058392130966,30.646184150540687,-4.700464178704711,-15.938403748044637,-6.92511064903379,7.131369340358229,-44.35551175285577,6.035456253551092,-5.675051399707956,-49.68872629726576,5.060621500300124,1.8099151016242676,-57.454418347519855,-2.8191106522228817,0.7072777240484056,-108.51356573432072,-0.783107502558204,2.4357169708688127,-60.05514316390387,-0.40837984672209754,8.69529965509469,-42.378954824211256,-1.3622515539132232,0.5427863558126317,-7.96823238171255,-5.326609198026279,0.12206502508471646,-4.469161415741474,-4.927664140727813,16.59998984721162,-67.2019914272957,-5.054541688712239,2.0230544268554502,-110.90016710781462,-4.291804660331028,-1.3701374975609157,-58.760782106543054,-23.78026835123698,18.082101186116535,-6.0038401285807295,8.29500895592072,2.1003811941679156,-69.02523390928222,-6.957733201876542,7.874403227817044,-102.57003693553666,-1.9251384426899572,-4.849707292671237,-47.06040726668681
41.01788974542992,-65.30090312902325,-29.62788997297987,30.534188920267326,-3.785615852740714,-15.622109186441241,-7.068854960925974,7.313460475665952,-42.63574502168189,6.084991590216268,-5.5272031981672205,-49.045305272590326,5.067271912413693,1.4493654029123466,-55.720925414864894,-2.775878025817051,0.6311637319764223,-103.60137264650228,-0.7971538728529368,2.3378463144457857,-59.33649990673359,-0.5875209033714671,8.803293492611253,-43.08790097665352,-1.572742553021506,0.6328462071331756,-11.610994359932375,-5.539705999898324,0.2289359262773708,-7.209592671338228,-4.924523248045232,16.57243892050193,-66.41118158484197,-4.907092829321772,2.029870627480538,-107.83430647511689,-4.223893803830935,-1.3745018623639842,-58.98299804193386,-23.59374436371319,18.102579334824124,-5.846169651651862,8.242212981545775,2.04512789378869,-67.46924359294165,-7.033138464851118,7.738021032783383,-100.83463778641006,-1.8570418273927223,-4.6483536868785,-47.52615221282384
41.50559031853876,-65.99633190155662,-30.495121917601846,30.82555380305118,-3.854676927031637,-15.746466871836413,-7.1167662789388615,7.1969236466968525,-43.20738516726599,5.939956946689416,-5.554602270989246,-50.08361437251157,5.059878405786721,0.8873670207014359,-56.87751443760715,-2.8243105887004574,0.6663658454216277,-107.17063873531526,-0.8256786114253712,2.421302031863665,-60.651054058789875,-0.5090670465286472,8.777841094542515,-41.15376971694426,-1.3871794618564846,0.6118246538309058,-4.146878713765609,-5.27588092587276,0.05196014900770724,-2.8701209251629387,-4.852027225512313,16.83783576083598,-66.49478792446546,-4.927663156128596,2.068088757822044,-108.86711752408864,-4.24134788098928,-1.4110675568104316,-59.33293009757974,-23.8882352827976,18.11873592896938,-5.934944676943961,8.198750473522455,2.0317505894537686,-69.41052197157245,-7.059942259757147,8.055136441259345,-103.78917108041988,-1.8602028759825426,-4.744586034298529,-48.466546287351896
38.86855054441319,-62.20567377140031,-26.844181553039846,29.311979849858858,-4.139801349237348,-15.204166024705861,-6.846988858406383,7.024066028121397,-39.63939927639753,5.737791361401459,-5.410230879546557,-45.510344383283666,4.675710943273018,1.8073053465969657,-51.2891732794071,-2.562264008637813,0.7369803700352763,-97.13012206095976,-0.9589535398049257,2.242923241320433,-55.359692442412246,-0.39264911121702223,8.582703873234287,-40.93969683945999,-1.2320875566881135,0.653221296149254,-9.914321860485527,-5.330196696122759,0.299889934848885,-6.9462333257822735,-4.838585497229656,16.11782418779194,-63.13628465086288,-4.856749549833774,1.9377377566909342,-103.18945591689862,-4.173907950231299,-1.4196923281946958,-56.00676688435959,-22.595242371314026,17.439358689696387,-5.7026677600050055,8.028686855261084,2.1231774267998627,-66.88210227714983,-6.799587378332873,7.626616944570519,-99.50573501403592,-1.6552967893125297,-4.554253871171976,-45.945317511107476
40.29033177739771,-63.157327835085,-29.341719092711298,29.36991290261169,-3.8495034930635215,-14.722725220803833,-6.548961476064286,6.9768469648331575,-40.93642314449615,5.908634055645661,-5.398178685062341,-44.336253271746074,4.751970883209245,1.8028855506859627,-51.43662103425394,-2.5036577821665307,0.8143336707712371,-93.7251997091787,-0.9495703417137671,2.291826333946599,-51.578116632947804,-0.46420008484670566,8.375663738215506,-40.21841294051508,-1.6067178310973074,0.4828322513691066,-13.535754827568946,-5.61698896011364,0.34239593259280454,-7.580272476074982,-4.768264752770528,15.559407964943906,-61.96088880181693,-4.957331467866845,1.9688513959656426,-101.33075348622161,-3.880748369488591,-1.6556969995591306,-53.87521085506762,-23.089133874325153,17.634436029709775,-5.54355390234807,8.31686385656309,2.5326822374966187,-60.08439812312423,-6.638783776232013,7.436354315084469,-91.6875664557842,-1.7188407688296647,-4.718338608294749,-42.55607584195255
41.68633004680717,-65.75008959000496,-30.80462648322619,30.754597250432074,-4.491725474393852,-15.851622161387715,-7.142867214374038,7.163846922326498,-43.91949628699009,6.127091010647944,-5.480526758364803,-49.88551020982184,5.14492768132644,1.3447563586844946,-58.12949505353067,-2.862583375354996,0.6335461453150388,-109.11996400225807,-0.8612767397024975,2.4821865071268663,-61.45256233051439,-0.410190607974974,9.01517187562608,-41.78462062525238,-1.1711462596757372,0.5933872282137234,-4.044908038654071,-5.19595666596064,0.030458091935261264,-2.2779490313783435,-4.808075700241277,16.92027247937902,-66.98309596262563,-5.139412141575943,1.995369417139958,-110.3952712377879,-4.226053302670651,-1.4992258708819097,-59.144289387787666,-24.059298197428387,18.043951670328777,-6.006828943888347,8.330924153008397,2.216751382435313,-69.82381671839994,-7.106554947516464,8.20943534516737,-104.31642911622411,-1.772751563219779,-5.0331894100959005,-47.887088123684435
41.01858758785456,-64.41457402104093,-30.724415062763573,30.209546629872218,-3.5727893148215153,-15.068296751455202,-6.934457818812041,7.120067245702877,-41.78858537791724,6.149018342412042,-5.413344573714965,-47.27988158531875,4.982828994476896,1.4732463189677218,-57.71156565684182,-2.8192304937494588,0.7369574138694402,-105.6066042981908,-0.7841941921771967,2.400185893011302,-59.061789998338675,-0.2936737974549221,8.699131410680387,-41.4597549770516,-1.2513170887236187,0.5771894193349919,-7.773437008402493,-5.250291090564577,0.14682911122242642,-3.961859069865508,-4.809295882971831,16.2231982321049,-64.87110006703013,-5.203770663665426,1.945676921963764,-106.75371860980943,-4.156595696189654,-1.3547797055137656,-57.56445125995063,-23.50662959851664,17.713899985907293,-5.9210976688015835,8.24031882491035,2.3558162650239103,-64.49603090834819,-6.916837063877138,7.681545567861115,-97.74103483127108,-1.8602823418758003,-4.9259727271385785,-46.56410971896829
40.42927945360407,-63.77490611291288,-29.899298178851584,29.77647619485752,-4.178789363036979,-15.24965661515573,-6.7229363154902515,6.9921980285966,-42.17960179246878,5.737215317730338,-5.34173755269516,-50.078190662142674,4.8828591059838695,1.337823626210164,-56.3489045314088,-2.8267185653222615,0.7705282309580319,-104.94644777092331,-0.7942723335566941,2.3911535235750963,-60.397702139737795,-0.2930849135148399,8.754017429690276,-43.646837401744364,-1.3579751194621075,0.4347533609178053,-11.486507424827868,-5.3332808748520675,0.28091835235024115,-6.676737367621224,-4.7782387520340475,16.259955164047057,-66.07237414215307,-5.178502403090485,2.015525147264707,-108.27965710522447,-4.312137930737209,-1.2437211373318118,-58.67267890936501,-23.189282287727433,17.49451666858619,-5.858132885897407,8.079009938266196,1.8374128568077215,-65.80414660786158,-6.878785581194286,7.710293745210259,-98.44948849438218,-1.7593901242103176,-4.743745490029344,-46.75686102811096
40.1385029016031,-63.587431906644525,-28.71891842344876,29.760895236679488,-3.308954192989806,-14.860401605268317,-6.903496039004234,7.247604959317496,-40.785321824174794,6.252555597303689,-5.365609175864864,-46.57191822399204,4.883304750709598,1.1431261705124622,-54.297148477174225,-2.7962915255404845,0.8435507191038174,-101.31148355425908,-0.6778574922096107,2.4837368262506776,-58.300492591055125,-0.20546110842032742,8.849922031434822,-41.838221257984216,-1.4037814755172793,0.5991044889794411,-7.983712476477449,-5.135463176540396,0.3238523469817715,-4.3807807204312175,-4.870772419553761,16.410505232730873,-63.387014421785295,-4.9941739821211515,1.9547052691204725,-102.80730404706726,-3.9283601296207977,-1.3625502650203447,-56.15568619536157,-23.263355255126953,17.470064798990887,-5.755987803141276,8.122939868952137,1.7617298130679526,-64.41007359483386,-6.77594577378315,7.54516883778517,-95.29705156359667,-1.7356626634709509,-4.698971180678288,-45.42299966746642
39.80788073451821,-63.32831460091406,-27.66763617227511,29.657643742947517,-3.2451438462133844,-14.778066207616561,-6.857693977105438,7.128698509426517,-38.745241958725856,6.382573159866336,-5.4625427663143995,-40.89349334844662,4.551485168108366,1.9037215122534512,-51.453066785480395,-2.5479567138190586,0.8021201085761808,-94.7806828306691,-0.86327575896768,2.309367337149991,-53.43870790134081,-0.4058126400089386,8.824351462639369,-42.309895492994585,-1.4947171053019244,0.5044441575567403,-19.107915562572156,-5.640358073430598,0.44688098463042075,-10.418305297953347,-4.822318494688117,16.04784601275747,-59.84226737601929,-4.888209308901025,1.815268312290038,-96.1199423296606,-3.8087540942467992,-1.4889754796457222,-52.41953763649665,-23.08455119664228,17.566851072662327,-5.690541828750914,8.435296751813112,3.087328077612837,-53.824103672154884,-6.44201069301139,7.024905892069945,-80.07264778248818,-1.4028705578973029,-4.725867840780188,-36.87147259718546
41.08640286929625,-65.2866474157347,-29.81802404055559,30.532508523272313,-3.6323300951900386,-15.262164460320953,-7.034831863740092,7.250538614914191,-42.38152343006832,6.467385204125651,-5.577993771657387,-47.02678363146884,5.233811897663899,1.1310374956117384,-56.78255682385565,-3.0607558970950244,0.8099170356195778,-104.91186934796525,-0.5501694201482278,2.437574195797179,-60.00341307140386,-0.23366100543039373,8.90893610006661,-43.34175689036237,-1.5035104606567753,0.5469568920201126,-9.118092116001916,-5.42035661729637,0.21197373805251762,-4.897810377043316,-4.779272783185468,16.357491092544453,-64.94054566088421,-5.161590205591282,1.9962559055355913,-104.07950464243827,-4.109708180639066,-1.614883125492306,-56.7355636247876,-23.987991333007812,17.70354461669922,-5.93398920694987,8.45571895587584,2.4461889990316767,-64.67525931535002,-7.003819544858266,7.499453148597045,-93.8036797492659,-1.729210887662371,-4.839163791185579,-43.439833859776286
41.52752825149438,-65.12635774625238,-32.44390936182128,30.167374183046007,-3.6401885262545406,-15.192910829766348,-6.939994669531923,7.192229187109533,-41.19000152906559,6.323617374881036,-5.618267524527739,-46.13431531861346,5.148343351945573,1.3059909806980128,-57.36810331255075,-2.9268329976375136,0.7592329067048661,-105.79844106143109,-0.5325749677432307,2.3663598849907497,-59.133544616899165,-0.3610087477610448,8.563423386075653,-40.37085177134412,-1.4206435138562215,0.49102582508687204,-8.00018970667501,-5.378230110279316,0.09813717370417989,-4.57161268086357,-4.731591240361863,16.180685865985236,-64.82566690091855,-5.047061101443089,2.018025058219401,-106.12010892556287,-4.126972792195203,-1.5813774271993217,-56.72924423531615,-23.67474110921224,17.57019297281901,-5.775943756103516,8.307944483498263,2.357103098426244,-64.20364221463335,-6.893422820209948,7.5373106968494135,-94.5663833195169,-1.7352195827840085,-4.718643520762714,-44.5247215019665
40.22427346603089,-64.42372840483732,-28.958280922695135,30.24604846860599,-3.124556646636448,-14.91971979690569,-7.0831010204010765,7.271976731153912,-39.4960058945776,6.504926540333041,-5.625673892355146,-43.31938714956334,5.008464457279558,1.4865541046911002,-55.251993778458974,-2.8312090300099535,0.7503243863296644,-100.31078644889294,-0.7600941601750529,2.385138596092764,-56.69353970694465,-0.3324250331340109,8.692291249100125,-43.45003863285561,-1.5303726274858294,0.5714120880920764,-14.719171576680386,-5.357317903377191,0.47556743348473957,-8.528273855774524,-4.803305490061835,16.12034652576037,-64.37565674927316,-5.042143456444644,1.9605273996626096,-103.93177733340728,-4.132517828851914,-1.3719065615393322,-56.79541303696342,-23.4356689453125,17.71086883544922,-5.949587504069011,8.394312748471734,2.043154355788935,-64.45173907669432,-6.971857371524126,7.402705591864808,-96.07808629747633,-1.8180948037696334,-4.59985090957512,-46.79205321401242
38.8491636875294,-70.87655589128009,-11.84917009682266,34.767688320075614,0.0671417850182839,-15.484172146805188,-9.495711712819299,9.108365494450885,-20.104600335307204,8.616285313921656,-6.817594125367325,-22.21184090405467,4.254169275079975,3.7364540231661394,-27.206878699872817,-2.9165597381957187,0.992088599626593,-64.61922921420647,-1.166349460109461,2.746392524176365,-44.10281361084992,-0.4500415776782744,10.171334003871056,-37.06529411714014,-1.1130111245263108,0.5358661564086226,-43.10313399944505,-7.9563295667675655,1.0365729386993905,-28.771795194636827,-5.586904862784626,18.800179430324818,-42.616434829590325,-5.019611343776073,1.4582357348989412,-77.04153947375453,-3.002873673973051,-2.1145842484329895,-45.725544542684965,-26.346109495152792,20.168273522534992,-6.6203370351956465,10.30953146654234,8.676198582721442,-41.09115353982353,-7.3303983032336335,7.744435049002561,-82.07588938938227,-1.6529286775704757,-5.693487516249623,-43.01527569245891
34.152765054886665,-63.509714495984014,-8.67975207962539,30.53068768298063,-0.5449267375833842,-14.372142246819982,-8.260194471373664,7.765278799925116,-18.695244516339514,8.152180186918896,-6.228727047441737,-17.786510795987454,3.436806594973897,2.5635657625042403,-21.03291927078885,-2.403947779819439,1.0902538466520133,-52.76263768530416,-1.1873394409979505,2.6549744159730144,-34.74161231893331,-0.597596249109241,8.441655166388346,-25.05375325134199,-1.6827450428849626,0.3021619705371621,-26.60504658114897,-6.570651566925584,1.1201052071793762,-18.079096032086397,-5.125521154530448,16.58921446499286,-30.64204501994382,-4.55915049153041,1.8120278758759898,-54.77712135903374,-3.177914262610488,-2.0977195913394784,-33.29999778528537,-22.828897581090292,18.085060987948406,-6.050975666380542,9.762178847181254,9.958528665069418,-18.520897545880562,-6.430733873989699,6.09080559374144,-56.1601045913178,-1.0724672606850003,-5.44957906268404,-29.909143861127514
33.28308890199431,-62.40110412843193,-8.431478201539633,30.434458997541032,0.06565138698903272,-13.244950444861088,-8.254641527587752,8.193405652105863,-16.229431239106404,8.660913581664664,-6.844272170301742,-8.782817097297595,4.0544987448462715,3.734925912141429,-21.64246822430482,-2.8039179777521035,0.5753290732228278,-49.51698695647618,-0.9904566728871371,2.522267399041344,-31.1888655888563,-0.8942346029441707,8.543219080501155,-25.13396772394003,-1.3582898552973062,0.46919631072877205,-27.121165160127816,-6.2001923253160784,0.9906722286161361,-17.793773532331258,-5.217499806924363,16.090446112484695,-28.77566171683488,-4.569631967359361,1.1944348491337256,-48.58173381247559,-3.0169430736072766,-2.463824663182055,-30.833633392576004,-23.07348378499349,18.065387725830078,-5.842175801595052,9.943203895332068,10.367877172774257,-16.626223544752378,-6.077447205009251,5.6207008479380365,-47.18937378880529,-1.0931648462659513,-4.9580643745957005,-25.881234751082133
31.870830590021672,-60.41558858045943,-6.065764389990787,29.885905799802448,-0.20434247739105102,-13.266003442435876,-8.595317068478012,7.7985556539165515,-13.301826347513158,8.798673323680761,-6.407865584310994,-6.651284528698494,4.006726133044846,3.1267760918267307,-15.854500022908184,-2.8573320039886325,0.8574767531393057,-38.78563361377892,-1.2771062917066147,2.701440089889463,-25.26553800947509,-0.47082630454796753,8.702584937485323,-18.270881287291648,-1.2394669304798827,0.4754694780594099,-18.22463174609287,-6.074936941558498,0.4831511882925239,-12.58177266684744,-4.993725192795219,16.44905232254039,-20.409604054047065,-4.254641161950379,0.8148599686092989,-35.4330372867681,-1.9438300665456627,-2.663225997118739,-23.033479126480795,-23.155188452382404,17.446925310450847,-5.836732598019874,9.85748735093591,11.415722973764403,-13.185652505514696,-5.60300469722283,5.664617952810668,-36.798571505345514,-0.8022286417019746,-5.285165064913118,-19.87913256115462
36.73954085990929,-69.42006454426915,-7.474630457775812,34.59537656079795,3.8192386998043752,-12.927924014232723,-9.713170467306517,8.6408192384941,-13.975619127876314,10.534026378588672,-7.352132997758543,1.494518946782361,4.633900819958591,4.330142186783584,-27.946153494292556,-2.9617719941996867,0.8258234572804177,-55.5114133202211,-1.3802936464174642,2.705929918570232,-32.95893094119178,-0.549957697297694,10.082321486746023,-32.90227042814612,-1.3287862428904245,0.4740823973097423,-42.53567296432717,-7.506266807839901,0.9050003031127137,-25.56555579209548,-5.365699911258427,18.068656213164008,-32.374582498383425,-4.8171007763788785,1.0593692748566477,-50.00371334833545,-2.6249677010802537,-2.6885123982117705,-33.04061505404258,-26.17755635579427,19.742093404134113,-6.3174746831258135,10.944917406602917,11.534773322772836,-14.268324484596945,-6.1603855908734575,6.163233120362975,-42.27078607128354,-0.850820901058857,-5.718519727552835,-24.63907334811388
30.780077234526683,-59.431111795466585,-3.1356193644644015,30.17528162463587,2.115953670708944,-11.681930886644636,-8.775999963137256,7.883279611992285,-10.237957770103105,9.98771351592913,-6.627654010384667,7.330634132521368,3.781325113210071,2.8905986841586735,-8.119977889730658,-2.8531647491280734,0.9121514155349505,-16.11542675593625,-1.6752189874376278,2.8071114034015565,-7.981842621332743,-0.5984987242418124,8.024079737096597,-13.935296298366325,-1.23302255800669,0.48110373905781306,-6.173633438100566,-5.418976689701182,0.02840451908176236,-4.49385373463218,-5.00226564358718,16.227556618687583,-10.81831854275587,-4.007184855497524,0.4466436484871743,-11.872070774876429,-1.2969612236439458,-3.2700044875976104,-11.276325811197745,-22.84244181855838,17.287462101714585,-5.800680542471507,10.233393978236526,11.508657217421552,0.16769788335503252,-5.086731634765651,4.984071064294624,-17.450946103147857,-0.23679852468777152,-5.376718357439688,-9.949092251727754
30.931746373469963,-58.294040882942426,-4.606226233871055,29.486251855521687,3.1558116950227735,-11.07485429897263,-8.256580384899179,7.690436768386069,-12.868339544909285,9.521735174082092,-6.410453543828493,4.883082502762349,3.7004059804404186,3.069732542501336,-7.543272463256927,-2.8529766986935523,0.839206496462273,-13.433207695356097,-1.649933568982103,2.925768496467009,-5.657878849622809,-0.5514521675584471,8.041148866024416,-14.264471113289531,-1.3151146569809906,0.40439118459081236,-11.812206158672721,-5.523515545259319,0.22120979014058736,-8.654391058388594,-4.869664876365714,15.586883380856158,-11.993545644145406,-3.9765955605152854,0.45350572612734136,-16.028507613053176,-1.397965562384779,-2.944740811720447,-13.681126696904938,-22.375773322399407,16.783988146624903,-5.603683841261095,10.06878125237342,10.78965468162407,0.12897405577767662,-4.921238594354239,5.121283579802086,-21.69408742900959,-0.5165635135527894,-5.2724007985950205,-11.653870364059172
32.28355221012858,-61.9652346160315,-3.5723837896096495,31.059508128179388,2.316953254905985,-12.216655141645013,-8.808996001162841,8.157845132001954,-12.537209651022886,10.04992504819891,-6.72646698977582,4.999379292566812,3.9200875165040405,3.0098132265924136,-10.255854682429568,-2.960221313777689,0.8334267697220646,-20.999447964929555,-1.663036606590233,2.9595680735892116,-12.125948318548117,-0.5333075601782166,8.325437802440085,-16.533893361273275,-1.2564308836599285,0.3989599288220534,-14.250179532600276,-5.843113454429244,0.16972437233594476,-9.594075892249924,-5.130037936766498,16.398713072407556,-13.841847925947166,-4.138575633206494,0.5035656147988742,-16.032444975055093,-1.513091357739283,-3.1918309025668994,-14.117436573109524,-23.67185708990659,17.777773457061055,-5.849542590661304,10.526004756298944,11.748250919300787,-0.9193754763479699,-5.132286283033429,5.032687320462014,-17.294919481172165,-0.3715037288273324,-5.650027078900373,-10.226669333561711
30.887538798395195,-58.041720660981404,-4.522620705256724,29.544187861548437,3.2098424790402116,-11.007189538577544,-8.287482133713185,7.677495007710573,-13.630529240015557,10.139631192141655,-6.5770686171939525,13.159737935351936,3.815332948518152,2.7672415618389294,-11.300530770069557,-2.9151180536225323,0.8262877261882081,-11.319629347412066,-1.8145879833153253,2.956912400549052,-1.4770482597601422,-0.5380386407467582,8.461144930286286,-14.889408174545297,-1.2935997740878584,0.3677230627832438,-6.774105171036539,-5.2396319363587045,-0.017369350653208594,-3.8754825584494075,-4.86564080445973,16.05608223709655,-12.698059517143696,-3.853654587316045,0.3041863743649166,-7.292694770495309,-1.0814399216068558,-3.1524431480982815,-8.391213062345201,-22.34672673543294,16.881356557210285,-5.617947896321614,10.070193686735756,11.506113519439445,1.0586538542458068,-4.695743302195997,4.793832725986099,-11.258717102695334,-0.2747101699761709,-5.469333858618384,-5.290316096648652
31.972132491204103,-58.67818079381007,-7.08461287428852,29.67733957817161,2.5568762080061647,-11.461225166692726,-8.079884917801298,7.595954542436343,-16.732883777844396,9.685378457332131,-6.456480715274171,6.352068780262139,3.869501553273604,2.5256511547468556,-16.12908040456658,-2.8724973155217675,0.7798285569407205,-20.394325403053372,-1.7266332698922626,2.837127676569725,-8.028827093048013,-0.5683847205854934,8.25989886845569,-17.312329939767483,-1.305408848849113,0.4073208650861011,-6.604330964037338,-5.201041869971731,0.037008712313923615,-4.11509195112796,-4.899859853754539,15.91073540152668,-17.739878054943244,-4.003621650754268,0.5112006087401838,-18.05936550841261,-1.4847965981324431,-3.0875686483691163,-13.513100048921975,-22.434171040852863,16.951614379882812,-5.59913953145345,9.90184806406102,10.36423531854466,-6.000689198034753,-4.9850302880178425,5.111848536030633,-21.138782916636966,-0.3311770750968172,-5.274265752050725,-9.325668604147655
31.468604707047422,-58.888142067848115,-5.221736344506542,29.931452299413035,3.0979604163180294,-11.27000735236536,-8.307411511015959,7.784516631609982,-14.472425831277667,10.086575571755349,-6.590865525735744,10.966052264058527,3.85376198461675,2.551826377545068,-12.851228661855743,-2.8517141881851042,0.8706618862323396,-13.841845939740416,-1.7299645530085688,2.9112038301836454,-3.530792349548244,-0.5458381774834047,8.222583567904557,-15.081895688881032,-1.3032000924063984,0.4453022883200675,-6.059095917660135,-5.245987060859358,0.13990029458610068,-4.020820992818982,-4.939982852070259,16.50901414160641,-13.765986406889633,-3.871107979985569,0.3956160567884868,-10.881122306305658,-1.1707027539969441,-3.131443866012988,-10.030848776133718,-22.634994506835938,17.131949106852215,-5.693380355834961,10.123217346387221,11.303504391275643,-1.0719444003089815,-4.923327551184154,4.867945486985467,-15.145869284299307,-0.24010734592352453,-5.430355529192863,-6.90246705541206
32.047850746625166,-60.0093612444173,-5.164948633125354,30.49226025211053,3.271932156661918,-11.420658925730786,-8.472747048485536,7.908575465672979,-14.709845068136728,10.365337407366953,-6.755937121905824,12.982679142246193,3.8795006276892754,2.8003146845235207,-12.057420372636363,-2.8606089333519047,0.8448137678197648,-13.334684980053865,-1.8144718765749595,2.944778123892734,-2.1566275336067293,-0.5720608443647445,8.771183918002455,-15.493646393415231,-1.3779159383458932,0.4276989023305602,-7.370187404564408,-5.392099017619738,0.09897744417932304,-4.444928340203833,-5.0200884157077015,16.62706565925286,-13.895944723276168,-3.9957281977031447,0.3732661806000508,-9.042231822680728,-1.2434689243646435,-3.1991679835745237,-9.756560136199292,-23.001576592220733,17.459064370227434,-5.797625822120721,10.387240123977753,11.655718262092654,-0.405278911086662,-4.9195560327403856,4.91242154487274,-12.125452213135476,-0.20081776373866256,-5.592655993160666,-5.073058136503935
32.06510054664535,-59.71509950159148,-5.609760607886045,30.42372942308492,2.639637467894696,-11.556347223184234,-8.50847594691823,7.886297761084575,-14.565646141757524,10.35882626285712,-6.729147120383559,12.44788033952513,3.865977120847623,3.1475941262724128,-10.796077414815775,-2.95907569855864,0.8511040494902674,-13.034604903278492,-1.7791875504391055,2.9829520571321524,-1.8889564441602886,-0.4564207812503465,8.866016335666057,-14.134148814238928,-1.2571199585854484,0.5310723441218361,-7.081470681607968,-5.3254452588409755,0.12166617606381742,-4.153711281466366,-5.027282504187786,16.598873363171776,-11.878135855484691,-3.8073349667574576,0.39772991736349134,-8.009559280484506,-1.0821995620788138,-3.2077276115603675,-9.199523605113319,-22.782425099527597,17.398594339543504,-5.75006711733851,10.251192851386893,11.923612217166225,1.7377402744085444,-4.758814383810887,4.812025223099414,-9.79997682902217,-0.26394222912182747,-5.556258126751909,-4.752271098631148
33.43667138605593,-61.530500218766576,-7.3133869790791595,31.20679321368965,3.5527129522965315,-11.489438883094707,-8.546378779941037,7.982429322192229,-16.543220676707616,10.51300833475757,-6.917201005140714,12.30055061698524,3.8756390554357893,3.026128190457498,-13.837269360007697,-2.8702458097194103,0.8210633496270496,-14.554303928901327,-1.874000007796307,3.0343369173218533,-1.3596865775602576,-0.58598131871158,9.164056579580878,-15.594151792183366,-1.35923430398974,0.484460747725531,-6.680246746614695,-5.456069525866422,0.049468386643682104,-3.5912905320269863,-5.1295431929130855,17.179760120888854,-14.09787340818071,-4.117384315596204,0.3852321330327965,-9.164467307047058,-1.2558788908755716,-3.2982796625079054,-9.916654486943196,-23.544423365723386,17.910872405088803,-5.912098869563032,10.617981300936398,11.42921376326963,-0.5722743123885682,-4.943512491514695,4.880203684089121,-10.606741776074623,-0.05625280484555784,-5.797444294308762,-4.055952332368684
32.76282154690323,-59.717437381269264,-8.674942076107355,30.124833623632725,2.6559279284941675,-11.50420590086277,-8.342095269865064,7.802378297507947,-15.616518758056053,9.784038476915468,-6.4960868310308415,6.87875818431431,4.1192449544016165,3.492308812044849,-19.223707855013835,-2.844621696083571,0.7533529669670438,-27.549384715555348,-1.674387339844122,2.716821900076669,-11.069117441704407,-0.5850909171765196,9.240334599156684,-22.23689462581497,-1.2745502768430332,0.5731420145579281,-19.64370798747136,-5.802299389639868,0.3731170319965537,-10.96220627624957,-5.016449800255367,16.216080374731195,-20.4359016801196,-4.0755696907613155,0.589616113639056,-20.921331872183874,-1.5782141417397544,-3.0361164365223607,-16.050970759779847,-22.673880890640515,17.273039013703215,-5.715325512838912,10.093590622677693,10.340826575711057,-4.412336130106794,-4.783661619248634,5.020041523353288,-12.600641628182672,-0.2251318254641724,-5.424374965789155,-6.224049838481371
32.68135242432867,-60.07300848071992,-7.298130863972591,30.402694822728453,3.4415693715430216,-11.284070218356883,-8.186581769374575,7.813764722529972,-17.83564773111362,10.106312457057411,-6.620299465121719,9.892205607766074,3.829091666643496,2.856162033855659,-14.483826033415147,-2.849136183534531,0.8423100215269882,-16.1242135491041,-1.7573865625067366,2.828952012640974,-3.3263657616146456,-0.5471070753098005,8.928016580715823,-17.585751498337164,-1.3186544199966839,0.46266648385541725,-7.530050357233793,-5.341510006748382,0.04670591090433395,-3.9448717746130684,-5.060715694849965,16.502583420546085,-16.078038225401425,-4.076435159588651,0.4234239278862431,-11.879930369160492,-1.3207978162305156,-3.2004151072350844,-11.259811748876908,-22.878384908040363,17.46435546875,-5.717875162760417,10.222013966324218,10.582063517392944,-2.472501138461562,-4.9225399571241875,4.890761467751497,-13.489742361079768,-0.15244999342273177,-5.6097455420398274,-5.4577137194023
32.97610798272717,-60.824056708920814,-7.084233006456269,30.79049541011464,3.5574347002639914,-11.17784951967081,-8.378422312713758,8.03425894028369,-14.894786685564206,10.347930379534946,-6.732759209466862,9.903272476758092,4.072609823439966,3.4861608178709953,-19.234766215641404,-2.7558418104333042,0.8781735323459103,-25.295478583117614,-1.7394586068658213,2.7890269265419483,-8.688129694845186,-0.3924410461365521,8.94627458998751,-22.020178260081824,-1.2227508160851472,0.5931401230134448,-17.113231000851926,-5.775802228432215,0.2482280987282791,-8.928724760492374,-4.872972814729044,15.978422846526707,-20.890839394296673,-4.279634914195446,0.466899452257384,-21.118606158932838,-1.518836259394556,-3.310508465606644,-15.166449714977682,-23.141896565755207,17.548341115315754,-5.812856038411458,10.192904373131524,9.830643849222387,-6.376457700470232,-4.980074259861822,4.974761245228905,-16.77220634833199,-0.35978147120564086,-5.56384078963589,-8.698848334646387
33.18262625396309,-60.674762811979384,-8.235926315585447,30.602231146961035,3.7197451289009766,-11.134544535304075,-8.46200331113433,7.799516024174168,-15.132132747361604,10.102750714881525,-6.587329511615761,8.447277119312037,4.140453654145449,3.199607320794144,-22.002155600074115,-2.934356582062925,0.8233906563481351,-30.436224027077404,-1.6687280053930145,2.8456704106167887,-12.592879669032795,-0.5445284886666125,9.302770646266337,-23.463402022088346,-1.4298260968557936,0.3716393439409385,-17.356815982510383,-5.700501467107817,0.23708768375656677,-9.458408304778334,-4.934348464531291,16.636972342692218,-22.463840776450933,-4.250592991376536,0.6159431508938664,-24.4069812667546,-1.7489682553370844,-2.924599182290937,-18.239905322406116,-23.07029097807063,17.419891735069427,-5.819059076714066,9.968401329377583,9.721365551252644,-8.662964579317055,-5.0638029090092465,5.3198477548412475,-21.71862411664829,-0.37532049933425443,-5.439222387810893,-10.331902761989515
32.97357018597574,-60.50174541019434,-7.2094224191489795,30.729730559165645,3.7888427135096006,-10.926839068845842,-8.404732728209284,7.894584212788875,-14.733512939018501,10.608234753335175,-6.66139902364948,13.242701061681688,3.886146224449108,3.3728170316077795,-13.645349655987596,-2.96484312926743,0.838294151969382,-14.170259735075826,-1.8635593681699685,3.000799186780087,-1.480097051378373,-0.5086927060933174,8.830472939648965,-16.564833259614925,-1.3209816078059735,0.4502669450450946,-7.824158730158246,-5.250660506660135,0.09017620920393223,-3.750716377627524,-5.081719089764803,16.640591396207288,-13.914719823299583,-4.013217205939035,0.3147218389503374,-8.935165989937273,-1.271494168443777,-3.2368417379934606,-9.955833162496605,-23.092849777166368,17.55118498252298,-5.864535658894208,10.341105755522797,10.939206253521318,-0.19765648414615974,-4.857133003375653,4.832983246639783,-8.962808331933697,-0.061518635942696166,-5.5120872452982725,-2.720597252050924
33.04675308249696,-60.76888689060954,-7.29855876608778,30.78387408606153,3.980367346066659,-11.098936858693229,-8.464558422711743,7.896887133358649,-15.660710992621837,10.38019293744937,-6.75575939854549,11.96477668356583,3.9577459613327597,3.166559746922918,-14.916867627016982,-2.8921378783112863,0.7988573711227648,-15.394782976833575,-1.8092844892547368,2.928584881349142,-2.858347824538999,-0.560632138725316,9.270124395512635,-18.677630565539168,-1.3155776532768306,0.46328080083954387,-10.255845107398434,-5.3909737274002145,0.09902216382623052,-4.8677475349343196,-5.043997142210402,16.62066649653732,-16.33030603525421,-4.037527584142435,0.43132373624934334,-11.299905800437832,-1.299315313784737,-3.231946778877101,-11.047085823182675,-23.137299881941285,17.593768127691582,-5.876788144867315,10.334030367336876,10.44170498586304,-1.6223470426757576,-4.959427830254543,4.923357694148515,-10.874686374208787,-0.08411296112450493,-5.605952276335617,-3.816531626201592
32.91378173440604,-60.162001878081746,-7.888390844035965,30.583566453480213,3.9891234274805107,-10.835557914555352,-8.3326150525298,7.965776103716113,-14.857979517959349,10.499723469591771,-6.692735016843268,12.619504506460382,4.0252939426244,3.515599729652113,-13.800251814178978,-2.7675757457785743,0.8550585383384521,-14.263562723540076,-1.7853173550937693,2.891793470200291,-1.5187502996500477,-0.5832740271714919,9.422276029682678,-17.154385798151484,-1.262946416271548,0.5545922954523668,-7.81379056961067,-5.3392537093763925,-0.07431417720835305,-3.7226564172282592,-4.977811412104942,16.297371124656202,-14.560989721028173,-4.131936680513172,0.4131588876404386,-9.892636104281154,-1.11968083865394,-3.398443608955811,-10.07854454401862,-22.997380282635262,17.370414817887184,-5.770857100865771,10.31710276015702,10.383897531547545,-1.5469047854291673,-4.868185034473151,4.915470174035389,-9.765606857375891,-0.03729189398080121,-5.45881286328918,-2.981583680743045
34.77718849041786,-62.04666021452105,-10.538274522196392,31.10360740403031,2.232219162847155,-12.338871236833072,-8.333829940101213,8.086298556153324,-17.11062660799931,10.01513921951843,-6.711324120766719,5.128139653661021,4.293595159483792,3.3138063572731755,-22.394085321932632,-2.644481285051709,0.7749018328549981,-30.391210946730336,-1.6399871376994504,2.7123882761495697,-12.935966509858323,-0.5438193319013593,9.469873477557714,-25.09824402594705,-1.1777210612876554,0.7625993121082996,-21.85555557028322,-6.0878727149357195,0.43107104092924026,-11.17730155875479,-4.940602768203613,16.473594874574562,-22.57079596823097,-4.121783590825314,0.5744791465018783,-24.310214086971104,-1.4577027790530632,-3.407233363399936,-16.87575989068534,-23.52868842871415,17.668457818321798,-5.71664794179287,10.296135410197387,10.268402153465738,-4.306695884255445,-4.826476258614967,5.134030020325823,-12.641827349221524,-0.23219088011977185,-5.522445497698086,-5.060168569697396
32.6304559391797,-60.39290380242404,-6.614664387719622,30.571427872537814,2.951333480415153,-11.679544703137168,-8.548473578426739,7.977777032333306,-14.722720086189861,10.395040854923137,-6.561378697021493,11.236298496030775,3.9601366553612363,3.4557748725184023,-14.926450423311744,-2.8277996003974706,0.822180593831891,-16.419546633555154,-1.7343376679935743,2.7584526580253033,-4.257090859756421,-0.5741364130400795,9.47610683999174,-18.490326321135484,-1.2484951035581255,0.5935726230472405,-10.39549524142476,-5.515705494267128,0.029392420602406804,-5.536907551607484,-5.0159374801020356,16.538799614733318,-15.956094382144764,-4.109429550407939,0.4252554143259015,-11.458788204113388,-1.3687273218791323,-3.24762338316715,-11.109696910469657,-23.12237548828125,17.577557881673176,-5.845232009887695,10.405106912588012,10.531958685920088,-1.5650130589982851,-4.769235879185003,4.946088414625211,-10.031454539767632,-0.0894321504352303,-5.693643315601914,-4.927913776006277
33.112418548239226,-60.09503418313364,-8.33618842333324,30.62806568210603,3.912419203315501,-11.099065144375922,-8.420040224481157,7.907997764941772,-15.473738585876125,10.269174196717533,-6.792784790126727,12.234461581268489,4.078760191191179,3.457929827514579,-14.230034657513038,-2.8468285746014512,0.8636137286696021,-14.454131976024781,-1.8222065054921224,2.902238008868911,-1.0392816526571942,-0.49933028446365,9.5716285391946,-17.661271533911044,-1.2836999736184105,0.47804926605318165,-7.871131098400503,-5.224955135659157,-0.025410754673364996,-3.7202475052514425,-5.070024588784969,16.631981627987134,-14.967643986351325,-3.984463561511172,0.4391846940358563,-9.382753732340579,-1.3431549422554572,-3.2870096532595183,-10.997375506178528,-22.862892465774355,17.358170406299273,-5.7622398508705475,10.275940120942293,10.073323939580682,-2.31198405916683,-4.8524602333238676,4.882736822139747,-11.008575119420179,-0.12928720499258026,-5.581790871003672,-3.0362393136248897
32.74918272285052,-59.569042417371655,-7.966521660028378,30.245248530883202,4.219870885334953,-10.864866047235287,-8.410490093518797,7.863375043999679,-14.02263939408168,10.361364949029982,-6.681129371135284,13.166729586358398,3.870129034058669,3.3278041388028767,-13.363614239710266,-2.913518179956609,0.791330845362883,-12.135225911613842,-1.8321316066395312,2.9107021020939077,0.2821447172948963,-0.5706882123873047,9.430529463116242,-17.781853763173583,-1.3454164906802502,0.4917496592324378,-8.532415927771625,-5.355142604287239,0.08248709861548027,-3.7690892552150568,-5.014496816546238,16.28130209221038,-15.247332807517843,-3.992188510775986,0.4012829092475778,-8.91517076817753,-1.1846176929944332,-3.2087523856421805,-9.9755353297173,-22.78713347932573,17.203664713232424,-5.738092406388674,10.193798946474978,10.044601687101718,-2.106113359476828,-4.844077039146122,4.870913652879731,-10.902707231842632,-0.09987528964775556,-5.505539144638544,-2.974485729943892
33.051396321630904,-61.2173095184921,-6.549325789918722,31.168376274360167,3.8723988819204465,-11.273175058512694,-8.646467635791097,7.988052055656909,-14.474274947492306,10.612809338112333,-6.8808065029545835,13.693763236590433,4.004291553388148,2.946774512868901,-15.647030384584355,-2.9790248332861133,0.8196330407029625,-13.756417745277789,-1.8026211248096609,3.048148861657251,-1.392072051650785,-0.5444459024285385,9.267734578169334,-17.939463672265045,-1.3729383996139142,0.42463215789019326,-7.276269217144069,-5.349761989512669,-0.01463286965102018,-3.5777009616414523,-5.091272364728678,16.994595216218823,-15.607560829376533,-4.059257055978094,0.3837446462589859,-8.643660708833908,-1.277422042953387,-3.3424358081669125,-9.960452713624967,-23.43529720642272,17.718108795366337,-5.937292623978713,10.49838370193337,10.860672505662933,-1.3847046694101062,-4.968010985219733,5.047220820763081,-11.967831014173896,-0.08941631199471527,-5.674124546914214,-4.3260812890371545
33.82919767192134,-61.69499147402863,-8.180898724777057,31.457263988456365,3.906430935470215,-11.470929223085436,-8.60500785925259,8.103238757391287,-14.816124628185742,10.4757115239672,-6.8614677004231766,12.018968515584717,4.156831673491295,3.217434455340887,-14.762466607676997,-2.8495031180067194,0.8825829932184046,-15.923963367758892,-1.8766476839681256,2.8060507689476766,-1.32978088180864,-0.579454188573462,9.812220527352158,-17.475330654655398,-1.2839116339856655,0.5042042854189627,-7.30840276571793,-5.34718239224166,-0.00016861302822319493,-3.395433792842987,-5.231870077404852,17.171254284812203,-14.296980263570369,-4.192806755090008,0.520133754865011,-9.744666255990099,-1.3781472273345592,-3.371279122431282,-10.878023430601935,-23.548075055964237,17.852035904439557,-5.924518507224346,10.54298449956987,11.15501896478159,-1.912991742194248,-4.926605048203158,5.096857406125771,-11.142271089921243,-0.14390685101313738,-5.671312753478532,-3.950850472485335
34.2954068827521,-62.93482606474915,-7.248926704617831,32.16536050993982,4.642645166423973,-11.342972516110969,-8.886624736106645,8.215806436088284,-14.637924450944103,10.732457080633026,-6.997215524955302,12.725302928179133,4.0144541802849725,3.452917783925343,-12.537299159502469,-3.0688619993638366,0.8359934182860679,-14.85366237094849,-1.9048338598985213,2.9359790603496694,-1.143815880390437,-0.4738859882811421,10.014727068447977,-16.374907025885687,-1.344650272940033,0.566008392577317,-7.074147033684992,-5.550427938167299,0.028581104389832687,-3.7541044641051484,-5.2676330794057735,17.62525765182033,-13.621671817397337,-4.1754651416531665,0.4762457133851073,-9.154271918112547,-1.2950136217282926,-3.3804245144026033,-10.453619416343516,-24.064441086537826,18.251783861015195,-6.019432871343757,10.660184353025405,11.57173049540036,-1.377785758631459,-4.9888828538768415,5.166061765859548,-12.80424767134538,-0.17869799192147498,-5.844497242142182,-5.289345796392916
32.92463305600046,-60.51305734637507,-6.7815870673209036,30.895408779464038,4.0175707867141055,-11.005841932262124,-8.345821427581589,7.907871991735636,-16.50162689669804,10.417012363451311,-6.805649306667075,12.183061559774542,3.8815072476069727,3.33909990075117,-14.008127188155,-2.9683641388327104,0.78815873634069,-14.814974189236045,-1.7875150317392388,2.9687242855203366,-1.8484206675896007,-0.5287344603278059,9.402715421551555,-17.087148817732196,-1.2705641524814493,0.48877509219221554,-7.383675104826345,-5.431268521552309,0.033809624502491795,-4.002860468808722,-5.117494220854291,16.71274481173683,-14.315717389444167,-3.970429676119607,0.3635131077818499,-9.309857458810724,-1.2687363562212324,-3.2815066249655964,-10.453306959481106,-23.194815964200856,17.640939873460066,-5.8378707589030325,10.360035111302027,10.73032431317187,-0.6487196631336363,-4.964482485242742,4.9564073661047585,-12.7151864368945,-0.19672464615805318,-5.600361261369934,-4.944853272365683
33.42462091812481,-61.04662687653005,-7.966841032419275,30.927042805296356,3.572985915550029,-11.355522305364959,-8.460323439284455,7.926798091390786,-17.52150497146842,10.186093696334352,-6.755068386841699,7.869758715777748,4.0472589589144485,2.675715717940795,-18.55388230902696,-2.9009461535363137,0.8275392526880007,-21.748519929245912,-1.7507970026878947,2.920530046969267,-6.939129273080595,-0.5613032243082914,9.139869596077036,-19.763038418011224,-1.2976941188471607,0.44150593315062653,-7.275636520930088,-5.3585734410354595,0.020869751563688182,-3.8357080912360786,-5.063590099260016,16.62122006722829,-19.905690319901343,-4.099983106976687,0.5005994704288799,-18.461799796547233,-1.4985936489604292,-3.1234407665143284,-14.319718316535933,-23.35965347290039,17.683400472005207,-5.88474973042806,10.214892738278985,9.960830337211297,-8.234142894932335,-5.197034576473428,5.291218836480606,-21.301136015321298,-0.36831611277355397,-5.575683435370533,-9.144270052740055
33.04068762539592,-60.587842070089614,-7.214947059097415,30.903842275373005,4.349496457486345,-11.122607174412224,-8.415531506825992,7.9065768306453075,-15.766609455845506,10.355730705837901,-6.798804238022833,12.874851247612426,3.9427306807129896,3.048499685981666,-15.565442894884143,-2.8197043099288996,0.8417722833543201,-14.411597556098116,-1.8328757713384765,2.9100991204615823,-0.47177011635941984,-0.5358554593270254,9.447221370174605,-18.45080849851068,-1.3980113633833795,0.5208450603334553,-8.2195779034032,-5.404847793755489,0.10749328432243545,-4.021146755366002,-5.162162008419439,17.06698759390097,-15.4573432245465,-4.113928835323509,0.3969106868441088,-9.20624743682884,-1.3192776985100008,-3.272714831485807,-10.189013161833726,-23.202052838265008,17.602354815120382,-5.820726335406079,10.488194103556992,10.892676150996314,-0.9710853263614205,-4.879790164077227,4.9154721598551925,-11.124468931749108,-0.051427285505893656,-5.567028875680291,-4.495628148460809
32.95614241036849,-60.50743525381227,-6.733728855773162,30.846805940321275,3.7484069162538973,-11.361909805039543,-8.427702509715441,7.9205965654363295,-17.07774496365781,10.191744708207944,-6.924919535958975,10.838064928761256,3.9625042976193967,3.1861917368933406,-15.714649545568461,-2.9133550473806147,0.8525300708435058,-15.090884990433755,-1.8080567803128957,2.8451101885796,-2.171245851764336,-0.4669406315040682,9.46028177453303,-18.482540462181277,-1.2316738912630532,0.5440426104073403,-8.247798581594799,-5.360871584978324,0.07378962113102247,-4.560083117086255,-5.058768700432956,16.747704900485527,-15.295962752081204,-3.9890236727107866,0.4161388623403465,-9.078922007079937,-1.319840465307964,-3.2766332637094067,-10.303365204073813,-23.043362493694858,17.671742421668423,-5.829332240881382,10.307586521213013,11.16790731615174,-0.5538021958839863,-4.851245595179418,4.997681966293837,-11.207105247971441,-0.2036407682516638,-5.68042208542644,-4.568372438731452
33.3717784673404,-60.549556300265145,-7.962654246869609,30.841300605335288,3.403778519543684,-11.54399712993959,-8.365756678581578,7.94719693364208,-17.543876074478714,10.207420565458639,-6.818574672371497,10.45337461860217,3.973450341774759,3.208131266077539,-15.595075416985045,-2.996227777220323,0.816233001292848,-14.26789364338569,-1.7862063319069488,2.9282194504596393,-0.9440010629169672,-0.4641495802955706,9.462068337145409,-18.037177469548325,-1.2376770054238486,0.505921547366047,-7.3158713691317105,-5.426566749813666,0.026374002301569954,-3.723135070510884,-5.090976674239251,17.1099140109979,-15.161051171979137,-3.9833697231490865,0.3635454232113573,-8.631458162582284,-1.2005758350980238,-3.2417104416728506,-9.618486137675282,-23.089589386796707,17.64378256547716,-5.767504678424928,10.265864785061583,10.89503717360978,-1.0868607127806718,-4.8202395768314075,4.945228317535494,-10.332966306087869,-0.1917254615484436,-5.687704392900899,-3.9497115707793973
33.834017234252975,-61.41613120772911,-8.650774046179583,31.076741491412886,3.1617552678443928,-11.789569880515183,-8.374909385253558,7.872675857930443,-18.376010359133332,10.221393651326327,-6.887923093852245,9.472317602466648,4.047228219530061,3.1576752576106593,-17.888408058274297,-2.884431333531138,0.8088756107479559,-16.200659022809486,-1.726990714952609,2.880160027976473,-2.684238056043404,-0.4242669491634419,9.83549187397638,-21.731027938416954,-1.323978864116813,0.5574476919031053,-9.134265084352904,-5.518642004799127,0.0783149783970802,-4.627606799602886,-5.197634675470769,17.048381284390803,-17.94801212280027,-4.116260283980743,0.4686658783155166,-10.221133445956637,-1.4932915895896317,-3.2540383664090355,-11.384052294328654,-23.355600992838543,17.778172810872395,-5.8955841064453125,10.486325738703847,10.865917075726244,-1.5801704506721412,-4.92600443777208,4.980698479608525,-11.539290610633119,0.08995590262227852,-5.64530677879321,-3.2866934010506283
33.94062353730178,-60.916717429941,-9.281799233990052,30.952911354113066,3.4728414195614477,-11.562445039220874,-8.262407414098597,7.929584081142592,-18.32963402104177,10.264848983935495,-6.820292043890151,10.278447603502457,4.105969430458901,3.1180790495849755,-20.309562942162643,-2.9175100022303497,0.8551809518151355,-19.419963910094644,-1.8091894484053481,2.9047016906105156,-3.8532018181776344,-0.47976961476282565,9.631168582743136,-23.900758017137623,-1.3380311185957368,0.5240580001661214,-13.206288260525385,-5.6419799915956155,0.13958621076469171,-6.093893923940353,-5.104435816901326,16.94545819730531,-18.793818019346954,-4.106438106658209,0.43724873048455576,-11.565642412871705,-1.3989190881499673,-3.258412701735019,-12.026558756433374,-23.206949869791668,17.710901896158855,-5.832526524861653,10.398218525456278,10.33197792503646,-1.732723581210952,-4.951910341212373,4.980916190867571,-11.937750439120627,-0.09799731386480459,-5.645166983720831,-3.411881297243624
33.010254820627175,-60.5185619908251,-7.5274798413687,30.71003521994274,4.164699394045878,-11.194661420050357,-8.25916897359316,7.745016949100752,-17.563447213890623,10.123768094209991,-6.820254428521072,10.721095501785745,3.9414054238027236,3.192121570742923,-16.4248434344684,-2.8586030168682774,0.8643531427134864,-14.90492149726965,-1.7969592027169476,2.866528482025871,-1.0368665631074123,-0.42054318893951376,9.499638026837285,-19.75123731211446,-1.3559876978088086,0.5144856510406357,-7.667774216006419,-5.467964995101074,0.06150568286743532,-3.960063885586122,-5.145385453623191,17.00912808098333,-17.03535891461338,-4.090378280671499,0.46199667757518226,-9.21381123484009,-1.4101169912083418,-3.244016377682613,-10.612070766174998,-23.009254455566406,17.51186243693034,-5.834059079488118,10.368985476348668,10.600334309679448,-1.67505167514927,-4.919352467214407,4.906328901831332,-12.72094955204782,0.052761657825382724,-5.58321777011557,-4.010620564548225
33.02819780632837,-60.20349219425867,-7.568962684044879,30.624600708240553,3.9914942342291,-11.155925457455405,-8.218528059527754,7.839048906779357,-17.126070893078207,10.202218426794067,-6.7662024856907514,11.044106487128865,3.936888778432943,3.2289029651352994,-15.895931012739672,-2.9037519212908727,0.8735479725902979,-14.59942372670726,-1.8651364914074937,2.883953503948682,-1.6529829192503407,-0.5030531926556453,9.469450282691081,-19.286994304358505,-1.3474427786390015,0.5185166383839873,-8.447436264361176,-5.495829770954525,0.13232672305368184,-4.828034513831017,-5.180976615358072,16.919675061969365,-15.932010330589982,-4.076008568788979,0.41315839684841943,-9.68208522068276,-1.3808486072014972,-3.2017595048486434,-10.641065780732658,-23.013646443684895,17.535382588704426,-5.825778961181641,10.328919530568529,10.878422854257536,-0.32254289568376643,-5.001990005548479,4.978241721369078,-13.198176981194008,-0.10827942394508883,-5.596087294758159,-5.129909851621359
32.961802490973554,-60.829641498595926,-7.092785271771443,30.915825931946273,4.265785735463049,-11.204901176439364,-8.276754004028325,7.867824694837214,-17.476593945463275,10.352167996517196,-6.822464123758356,11.917249512612848,4.003828933299826,3.1439348266720217,-16.707633423510984,-2.8552823698779406,0.8206428727470759,-14.641509417726587,-1.7934876761178051,2.8870971256934737,-1.547629078748889,-0.4683081861159964,9.524495902997945,-20.999495738429875,-1.3536816870678356,0.5723693392831651,-8.388981689461732,-5.475021666514121,0.08394214569547591,-4.153896221621754,-5.15446067655073,16.66917053485176,-17.47283600431103,-4.150601603265108,0.4442290608818043,-9.46297750101233,-1.3623774285681411,-3.2664671720031415,-11.005693447152955,-23.1429443359375,17.66061019897461,-5.800110499064128,10.454509163092577,10.26352734792759,-2.1805264520864927,-4.915642828578194,4.9637688593795835,-12.561415339730473,0.03473134947921954,-5.5375031187525705,-3.81753713807834
31.916868535010764,-59.04164582318993,-6.166927713026436,30.14997681829391,4.430196962223036,-10.623547624154131,-8.04115133826822,7.76578749494081,-16.815296581295797,10.237689778902407,-6.636197079706324,12.135664341096728,3.995341588543161,3.230762278728148,-16.130092539062122,-2.775105112908038,0.8559515500453402,-13.522936739369827,-1.8283790756794192,2.893405293602202,-0.9832451432838741,-0.4712093571435065,9.305490133587906,-21.260257655088903,-1.195385678408955,0.5236251833586604,-7.496693168692741,-5.243018449523295,0.04083630140363819,-3.595085620821132,-5.025818526275135,15.98054076269515,-17.94329870774087,-3.9932410367601654,0.43325122948939393,-8.243548818597446,-1.2794141697046475,-3.2802404966236867,-9.870582691000592,-22.590410868326824,17.131231943766277,-5.798158327738444,10.077507460608633,10.079881434814505,-4.142595665851098,-4.869538984787892,4.947931070702578,-12.724119261840166,-0.07543345215448657,-5.523107706375252,-2.2790068785904714
32.80835959937196,-60.10965740352481,-7.697580823736104,30.57304221216744,4.950167205822957,-10.605856643152112,-8.27813063650282,7.63563294519725,-15.736761315404125,9.992497597079948,-6.749424449984616,9.748081033437265,4.053944860599506,3.212138790189437,-20.964737217260865,-2.7800830132488485,0.7779046556107998,-27.484749360465898,-1.5999865719055866,2.8038837745446235,-9.82928334608067,-0.4638901004703355,9.100615274608247,-24.733645706337544,-1.3972936133228773,0.564991610556636,-21.20886064467422,-5.979908818596189,0.4249468261880546,-11.39946289708683,-5.074700581909353,16.249169939989407,-21.51496370623938,-4.274926621486016,0.6620539700965868,-22.85334171989263,-1.8242288165199785,-3.0091222232528025,-17.270658151758298,-22.92437955708276,17.403042786485177,-5.843652300095802,10.165119389537809,9.356624838720668,-5.929969945125478,-5.068968305645089,5.205716437706601,-22.368113425299754,-0.06940426377723326,-5.416618576008546,-9.577446724092868
32.89376393397003,-60.54535500419615,-7.653184500173364,30.829253739525427,4.071731824484254,-11.23860620447791,-8.1872394773287,7.6885273278561606,-18.749848072990474,10.238232724240778,-6.842591696605896,10.572944101042728,4.0483837343836475,3.468317149328362,-18.140645380046355,-2.827783502021964,0.7960679825102678,-15.894755231325647,-1.7034797263948624,2.933801561625641,-2.106901839061957,-0.3772348442819975,9.624996500319456,-22.760270669059555,-1.333788651042634,0.5778234183173362,-9.559102499897383,-5.546119544947949,0.14957263072556842,-4.468007242314349,-5.039453066629727,16.458897482651917,-19.286324136696653,-4.029257668204539,0.4567869494366869,-10.428758524625529,-1.386882241772658,-3.2187570622586077,-11.270201192192033,-23.108233133951824,17.555142720540363,-5.690159161885579,10.457334884185164,9.942668275548325,-3.17240229459223,-4.844616350586443,4.9028081118120035,-12.420670171629205,0.09471090061005137,-5.496117807751026,-2.4012430773301303
33.181510345791274,-60.26726781153417,-8.938507280776502,30.550423890946167,4.089602842632535,-10.870243106512794,-8.223901106460227,7.6288884252597065,-16.989777450772998,10.044768427447616,-6.6680617735292556,8.332886178381306,4.142623491531798,3.4174436107918993,-22.109293184739546,-2.800298872515078,0.8550710696094502,-27.676674652335084,-1.6632289950737391,2.8389570015617918,-9.852807923466287,-0.38188797894320725,9.377169937090573,-26.864687378944755,-1.3269145000549376,0.5812668313619089,-22.74729211306136,-6.018161376304515,0.46550385775996656,-11.598537970182113,-5.040543084942548,16.043298002803763,-23.600655029307017,-4.1802934272934555,0.6316146749784711,-23.33961351941075,-1.7536814798081595,-3.0017634093100516,-16.9431561357265,-22.94951855454823,17.49516656211099,-5.745542136865356,10.161962722317861,9.228195950095547,-6.840614885806474,-5.033062001726463,5.155494566649714,-19.403065804974144,-0.08034485330829945,-5.396035828747084,-6.656937912923169
33.88017985778324,-60.8447350940642,-9.230274374006617,31.03021253106364,5.2142572834631435,-10.526540521626636,-8.368604281738321,7.913417001901739,-15.750488297681398,10.084324169652549,-7.26715933799457,8.274185656945027,4.424927684139566,3.746713931676332,-25.225094697511537,-2.848208570744679,0.8388815125344445,-35.86216544501855,-1.4034828400912673,2.769166627015659,-14.480118182597034,-0.46775756217753656,9.46476530537745,-30.013839014907578,-1.507906691345804,0.7087979766417071,-30.70739576040785,-6.248810861189578,0.6031657154968763,-15.756124150204407,-4.9047824043692,15.806864449058942,-26.463693538410677,-4.319921717852801,0.6415305101274117,-30.84827061165028,-1.7582183920439747,-2.786342915256931,-20.871921972234457,-23.082319115956967,17.68975516559067,-5.929885032935281,9.955301196687818,8.938514542222345,-10.039886723212662,-5.385136134921247,5.553931991102838,-24.739803235075986,-0.6695173401861082,-5.286874706110341,-10.999864473257695
32.277354713616056,-59.72233945571184,-6.221768015659666,30.61858013242545,4.933386712516612,-10.710353219519652,-8.092705701955586,7.896105087809158,-16.591480493713707,9.766508299546425,-6.993665634399694,8.797626956899945,4.08336945891456,3.449670799781891,-16.251518613838204,-2.684304588178089,0.7078433853065823,-16.96554447312374,-1.5395838433613953,2.5413461182693102,-5.703579158437584,-0.7797003287357319,8.959281106267913,-22.622911747211514,-1.4124663618963853,0.8312817940278668,-13.324541165525595,-5.40266940573579,0.43328631076932433,-7.760148738047472,-4.958929257657792,15.352723048712905,-19.136837865377128,-4.166776443628202,0.46416397943717175,-13.289464625193494,-1.5567868950681534,-3.1171244794463515,-13.061635770714917,-22.718922932942707,17.629079182942707,-5.864153226216634,9.995047211635699,9.368947711702566,-5.929520016207174,-5.156498845944987,5.125524902208056,-17.440478260864193,-0.19502404554049987,-5.351802422886164,-5.23915366217041
33.33335603112756,-61.69511696662909,-7.086747999926988,31.315136841474324,4.28551760178805,-11.331657118999972,-8.363227041193925,7.951145212227171,-18.036072267487555,10.611166942594307,-6.938714687903,12.293312970602665,4.091189162016458,3.364856854912303,-18.089558718957147,-2.818799962270806,0.8595107004831463,-15.052262622808323,-1.7376588819004908,2.8946311808518135,-1.360656658563924,-0.3821018233512228,9.543834905873123,-23.39376516757308,-1.2435633379979525,0.5782700765172901,-8.375855588813723,-5.4595606565953645,0.12499480671960024,-4.012370322281245,-5.1978163539986735,16.632194971289653,-19.740575100009256,-4.13715194702177,0.4392877740688892,-9.472799575527334,-1.4039060068315736,-3.301081993240203,-10.672664614143743,-23.372052510579426,17.947667439778645,-5.898681004842122,10.490188565754485,10.070172038774599,-3.820170192518702,-5.061064674474399,4.95550027715614,-13.375066893362115,0.22221021732416305,-5.635978937659576,-2.189411610641631
33.06493769647229,-61.107170770729745,-5.976103695932704,31.270370020630924,4.785408657716755,-10.834976114941023,-8.487559216588453,7.874146111591286,-13.3569700852667,10.484529054765003,-7.0931249231272675,12.360503557069771,4.032929369766157,3.6278759708914765,-17.93979985665585,-2.9285050969557873,0.7594924486093767,-21.540592224630085,-1.8662980019147293,2.682211601047848,-7.136543754224164,-0.5536574756632902,9.379100055139064,-21.69237762362474,-1.309347790263927,0.596588949878075,-15.691287106033869,-5.839003316614647,0.3635040437341432,-9.209469947694336,-5.277731590974146,16.26543679775862,-18.24286201846798,-4.259116743656414,0.4267307428798488,-16.32134887419222,-1.7938697321636348,-3.3068231338256795,-14.492156515786741,-23.316377990583387,17.88327131878417,-5.955240496036905,10.49957619177471,9.704822554833711,-4.405052127698943,-5.305942717518555,5.344847664787696,-20.47318941767809,-0.2263205463649501,-5.574815915464377,-9.544236344919517
33.785822532949055,-61.231564625866675,-8.554958546423746,31.072353696892225,3.49825914152195,-11.694271763263073,-8.23460235009001,7.9950795054951245,-17.5792447238375,10.394561559634363,-6.8461343054096915,9.708213554639478,4.221309598041771,3.0788959766706405,-20.466007719503857,-2.7005214546526832,0.8725051959867381,-22.6690929551939,-1.7482279724956225,2.7712712737106457,-6.1882446937753715,-0.49693560767129336,9.138414939343285,-24.234385992544876,-1.1240444392662412,0.5973791972444874,-15.66175920525266,-5.780906280669075,0.13324270602089971,-6.9771969381753,-4.967613539746307,16.143999919073348,-18.636415952714692,-4.256422962943371,0.4700339022169171,-14.342568893158274,-1.4012553523730416,-3.566018766249839,-12.837894047107431,-23.255207061767578,17.644137064615887,-5.775348981221517,10.40426532931884,10.389434498464215,-0.6200698075264423,-4.997055058297202,4.867708463912429,-13.002317329477648,-0.22136309092886333,-5.619752254933469,-4.0117760009411745
33.91790621439173,-61.78428659882104,-7.46283488358553,31.46973129875937,3.8918702196155643,-11.471974906406055,-8.492294242979506,8.03978681846312,-17.447892757262494,10.555965106017274,-6.9901037968391675,11.228283082543475,4.0501369384592785,3.451574661157944,-16.521698669666907,-3.0183727934421136,0.9238227478022846,-15.270121977923274,-1.8433262288344876,2.9638511026289867,-2.353954954478502,-0.39016175852271157,9.7432478468828,-21.124011848418693,-1.2762501704171803,0.6271827804787478,-9.21366350212165,-5.519360668056334,0.22198583798427265,-4.890025059855,-5.360661351282009,17.00330553826855,-17.30245852005973,-4.072021265807877,0.44478931252952997,-9.789162648786258,-1.4204313154294113,-3.2483999830484103,-11.089543501999836,-23.579692840576172,17.982096354166668,-5.985082626342773,10.443599100913355,10.769435363179666,-2.1480992385713,-5.084814629303874,5.065361494298292,-12.66527341869431,-0.08294288051329805,-5.719696226549793,-3.7368333145772468
33.73021325488042,-61.15487633558393,-8.15354249846834,31.11648275166516,3.8704543301492347,-11.3338440395655,-8.409736759251635,8.038705638578891,-16.41753409251935,10.543415319765389,-6.868734839000882,12.702394092526125,4.150654173210984,3.2263872539993828,-20.48410728536053,-2.915011142167833,0.8554591223116023,-20.981637853814384,-1.8122733584598765,2.894892908705041,-4.52500283448999,-0.5188919091562818,9.650843703094198,-24.235327629345306,-1.268933231550202,0.5338860636758352,-15.84277436166085,-5.68182039525972,0.1726883072530225,-6.955143530588249,-5.187813733392215,16.83670818684103,-18.353343358704873,-4.140641795941533,0.46926923224462036,-12.318280325176849,-1.4858817289346522,-3.2659517954176955,-12.404235602864333,-23.314400990804035,17.7735112508138,-5.959787368774414,10.405435357405176,10.356432040397989,-1.2451674990447517,-5.0893791394039285,5.042307767225485,-13.346432114663491,-0.17071287496076795,-5.579119412438604,-4.373062282211406
33.308644630830514,-61.27587369505735,-6.376023353087511,31.32247211187575,4.344226828362939,-11.179830823233791,-8.486415463534335,7.948842948635078,-16.089510652816845,10.485548721519283,-6.916631784082088,12.182917432217744,3.981046683787873,3.368657181622337,-15.846405516027778,-3.050450419465143,0.9044493340954837,-14.788478744384674,-1.9297811269708351,2.8835473092245167,-2.347847399171157,-0.33815946507928335,9.723718072949204,-20.639190631811815,-1.212170305701501,0.6070516470247888,-8.879252372673186,-5.443426424790151,0.1767304632270941,-4.513077946915141,-5.246009284145374,16.89574276832425,-17.246486142047576,-3.973466465846752,0.4612931634863,-9.039815121039775,-1.3472314679190935,-3.303202540114549,-10.630258588456755,-23.392720540364582,17.843154907226562,-5.978529612223308,10.268345246292535,10.97824017465612,-2.6623136552222633,-5.044384639774896,5.125593271382434,-13.942143882634767,-0.09271501124606162,-5.687417517430646,-3.883677161168523
32.515647058029366,-60.672199553764095,-5.904243177280887,30.98046528957994,4.945071402988014,-10.724518453323709,-8.426417619353883,7.910855004967522,-15.029017785957,10.586639435401393,-6.813202960606838,13.7178960639199,4.010006455094416,3.2179503273412924,-16.45103471504065,-2.840687042171035,0.8440780262178692,-14.1800736536403,-1.7795853415235658,2.9417166727127864,-1.51691600498589,-0.5140778785976803,9.377605369187798,-20.64605527192964,-1.310430237247419,0.47630666929061394,-8.351374321018925,-5.315299411560733,0.16935543215977045,-4.025650420727685,-5.059470692674605,16.135558309846573,-16.971764519411206,-4.023008556949978,0.40793915559752225,-9.405579531073933,-1.3107822884183273,-3.3204925822731233,-10.409818967203975,-23.195987701416016,17.674315134684246,-5.890485127766927,10.412475065864118,9.77946738629982,-2.4049505671698714,-5.138033151290052,4.853878102849212,-13.563872896326162,-0.01801052805331291,-5.532160778318108,-3.8068686976590924
33.56786708482245,-61.63109431785779,-7.460212714940454,31.463189406801636,4.2856580598845815,-11.2138567598746,-8.284135716854868,7.954504750649356,-18.240190506134667,10.62594348931458,-6.86449369223687,11.76237386522053,4.112897681181219,3.3508444276635196,-17.320921850743257,-2.8578657622710986,0.867304142629588,-14.599952463406083,-1.8179971634441052,3.0197900230264794,-1.5294653027241951,-0.4432140540615784,9.535085946689753,-21.86738813972738,-1.2930199724880505,0.5546758389820768,-7.908311086717522,-5.438102247622173,0.13450716036830127,-3.841462505406407,-5.112315384989589,16.661102944500726,-18.414435032275268,-4.0228661570977255,0.43132909869727004,-9.26760538500561,-1.3161056723989335,-3.373571708071307,-10.727980050487284,-23.56991958618164,17.928184509277344,-5.9468568166097,10.580038364106256,10.08906517961236,-3.0783639196032233,-5.1473809978375185,4.953036764895314,-12.996839167295256,-0.031105323443059826,-5.509395094254039,-2.599240013425366
33.81231505785681,-61.32856539175231,-8.771928537178196,30.91242584940694,3.517136596664098,-11.384010462945069,-8.469441079765742,7.91299878103166,-16.860413866747155,10.429230132218887,-6.906491526357683,10.958924187282717,4.086036917646004,3.489657756628883,-19.44241950123217,-2.9638179325855005,0.8920585874293798,-17.802210407855522,-1.8027700349954798,2.9827621664990027,-3.243939578554111,-0.418995064737736,9.832279286614952,-23.33326420871046,-1.2996265254651849,0.49438073689596523,-11.197174020718947,-5.509130413993341,0.20158235943717637,-5.522997475735714,-5.13789253112175,16.65058345623213,-19.675717204120144,-4.008173812569555,0.40658341613738097,-11.881565461498113,-1.3746116690090098,-3.1934323326599703,-11.798098014821933,-23.284259796142578,17.7383550008138,-5.913969039916992,10.329228716766671,9.866472511147672,-3.9544750133570865,-5.120888413332534,5.008980285902466,-13.874701793786693,-0.03764021531805511,-5.568962125982698,-3.275895179072849
33.01254347749137,-60.039148945649636,-8.004166910589792,30.630586767023374,4.236608738967305,-11.169369111263142,-8.225616547600874,7.864644932228727,-16.2547426648921,10.405454551760407,-6.709850664277124,10.88234771600667,4.195298883916165,3.6146245464343436,-17.779875144531932,-2.681832777469032,0.7827085374752966,-19.192113967528574,-1.7087031395800756,2.693863523989864,-4.318776970254162,-0.4984910032069117,9.673185997280145,-21.45457022024267,-1.250454692677809,0.6216650719196639,-11.996109391059607,-5.648568576302349,0.14789755939260996,-6.415353719419646,-5.039144770370005,16.273406929440775,-18.27350923820904,-4.156388341791857,0.4593585103209568,-13.085521349339283,-1.326126072392286,-3.2732000690843743,-12.60032020703037,-22.996159376919806,17.337379079960797,-5.618658895418885,10.247129230310538,9.63041683389651,-4.245565336270112,-4.733850686809446,5.032433162066346,-15.313994761414486,-0.2590195396019937,-5.453999379884895,-4.989770794543385
33.34182646308798,-60.81780687905743,-7.711232298964347,31.052193726520528,4.579380640547925,-11.065782559208555,-8.279271451437355,7.91852689827256,-17.25078538737721,10.47700819992731,-6.856853175996858,10.869364430202046,4.175306029528,3.6253018571194366,-17.28656842564681,-2.880065939907569,0.8173637947940482,-17.61240361054282,-1.8977922260861166,2.7076074646385186,-2.85873077912875,-0.4616702806363504,9.749061571969293,-21.66381805565635,-1.2219987445916174,0.6046377029485698,-12.17824998511769,-5.673321729800875,0.10756225027883408,-6.327522364438018,-5.001926211695275,16.341315766837752,-18.744523780443217,-4.183122969708284,0.4205807711697835,-13.304752658504157,-1.3897846430972436,-3.4011153918867048,-12.710895867682565,-23.204889438768763,17.577364228072778,-5.771615858004334,10.346011774551814,9.616287020046713,-4.615861309518372,-4.894450784205026,5.143955515114393,-16.46038623690171,-0.30637720237280563,-5.558424980740974,-5.492907262423162
32.5669985300637,-59.83886543131383,-6.876836103838532,30.509825731208604,4.2557280628920475,-10.824795874574207,-8.244109002661054,7.863897393989795,-16.913442238242336,10.520882760408098,-6.682566519436019,12.140658783783032,3.9293779598305516,3.463616098970624,-16.006471668699188,-3.061975211154565,0.8496994007809692,-13.783503193569585,-1.8549871012162427,2.9673918687158753,-1.2526013181805935,-0.38911891354716216,9.355176324175853,-21.422486544891385,-1.180882061844933,0.507955728790901,-8.99038330127933,-5.452562218606467,0.13698097152975094,-4.199063234994607,-4.942728456229614,16.277787951651113,-18.235661896860673,-3.7209297165712933,0.36704025459549494,-9.320971657104868,-1.2010427267699095,-3.1726719707957165,-10.569512530809204,-22.984439849853516,17.466693878173828,-5.719580968221028,10.120819267582908,9.965320561944818,-3.980749732803058,-5.015890311818862,4.987600582165959,-14.423696667117413,-0.11281565478965928,-5.4615117704027325,-3.2171367627072383
34.38007989050244,-62.44566387566104,-10.103088530761099,31.637251528702773,3.345790419147788,-11.739974342275204,-8.247931729700285,7.988957254540714,-18.47457199731354,10.499448476399962,-7.160633743218462,12.184187842470026,4.242725434048627,3.466361064554817,-23.61300291426737,-3.120834235258559,0.8986445137487534,-22.62869935334712,-1.7409084143735285,3.1256723942020344,-4.242157776222052,-0.18927110102949504,9.662023285548925,-27.541891134657945,-1.2780313363053863,0.5472311782558322,-17.607915220709604,-5.894713655894653,-0.07495243182025499,-7.353024305824968,-4.914994795714732,17.01680367654564,-22.21806949996728,-4.413880108423068,0.472904897422969,-15.30039960977046,-1.5388668605134994,-3.3374178924297504,-13.389234401199841,-23.751785278320312,17.916234334309895,-5.782833099365234,10.674416128798725,9.708185565735791,-2.878634450026647,-4.83430036767587,5.044195319412164,-13.950344208705507,0.20873541965708486,-5.517339600705806,-3.3357238540735845
34.00932073442974,-59.691234209027165,-11.923117188447483,30.16575532470743,2.9691587033423734,-11.193708764901878,-7.813441542077512,7.734650643756431,-18.50235737915142,9.265883044748369,-6.913743842722993,3.8420485027893254,4.632961266196238,3.788645514227019,-29.63827377527174,-2.6751881262978934,0.766740781107587,-40.733547780839764,-1.3872377351683307,2.7469519997729392,-17.34003759162046,-0.4949827127899436,9.479418974363858,-33.760178430591445,-1.569200807707688,0.9113560986698395,-34.95788444817848,-5.93336983805277,0.3101427669825089,-17.332410172752517,-4.648063948240377,15.232881808610621,-28.427051247187972,-4.338329171605202,0.626763901126274,-32.52162712877334,-1.7557542150451984,-2.9857573081485476,-21.644856806285443,-22.78537976060292,17.34789763104003,-5.82870539827893,10.1036175992229,8.403802745989369,-6.304691217409972,-4.8753537209247275,5.2297727436021075,-18.757632954671433,-0.3330512573840469,-5.071912132845402,-8.526306168090995
33.49927186507168,-61.20176288399466,-7.803638132235872,31.194592149842364,4.169866234655214,-11.319262576059543,-8.329225527400391,7.797361234156192,-18.383618869949796,10.270244329032744,-6.864443907813613,10.765462219727738,4.057883951250004,3.3595980191985544,-17.45619107686947,-2.9823125821828107,0.89645018355922,-14.991159911165923,-1.881226249398388,2.874193094764413,-1.47787258866505,-0.4332374587143271,9.846292511073061,-22.072095389375978,-1.3578515389726575,0.5322835127579687,-9.342479342237255,-5.580113975155716,0.06700746149391404,-4.727696175450902,-5.11942388695521,16.728426405462006,-18.896741715129398,-4.089263676166153,0.4056159818410398,-10.316965792588752,-1.3872873955455194,-3.2998952323571973,-11.483255755406306,-23.34970219930013,17.75779978434245,-5.8059031168619795,10.388223727382885,10.263278036633196,-3.6146501778414617,-4.981009924378325,5.042087460586638,-13.9883759444136,-0.015585193518407267,-5.619066908594239,-2.65894195552179
33.583538287180936,-60.951364033750856,-8.57492779850668,31.042493372268183,4.057176340902999,-11.251226821485789,-8.266083811406224,7.749129185809337,-18.332805024100644,10.212402267895106,-6.846688524171086,10.258192333217702,4.059603029793579,3.4692295094792462,-18.025955655789875,-2.9507252037752836,0.9079992083795245,-16.23522988780536,-1.7820617490031527,2.9039383724529286,-2.156405930144206,-0.33613276862950886,9.815366164122103,-22.334940872603465,-1.299888338048982,0.6049037509902794,-10.108200619438659,-5.51060073517349,0.1345775386133675,-5.02753486890597,-5.166441790160094,16.293504714848133,-18.15594309034627,-4.050554405221995,0.4812650228188568,-10.952784663654464,-1.4102282965588906,-3.2440549237012877,-12.049617305349935,-23.19252736108579,17.657161401292942,-5.82239363241862,10.456674752394887,9.545537994580087,-2.628556356641482,-4.893793621633759,5.010363412106558,-12.386456932230741,-0.026706225310244178,-5.535469168766011,-2.825450081260074
32.83721763322645,-60.0238099465006,-6.862538092944978,30.77935349443888,4.4560279900841,-10.875577418070575,-8.309595367776323,7.7836037947992756,-16.352074531641318,10.391783408920952,-6.741139891821235,11.699353736529233,4.010322443195389,3.5445157336577235,-15.077520222513831,-2.949234914497318,0.9390290363975587,-14.18470325210797,-1.880897997394514,2.8225990649914507,-1.9674030031989787,-0.3751771138971132,9.51415208870595,-19.842526261839684,-1.2440977745981794,0.6450810540211922,-9.331936902453213,-5.4875660896188405,0.149936281657923,-4.756904931904582,-5.223683080679253,16.029808839752928,-16.711307316394937,-3.9574509280785723,0.4905276179634375,-10.40579140710405,-1.3763234200718049,-3.2064112940185585,-11.40067247003316,-23.04271189371745,17.468617757161457,-5.70002555847168,10.225445283474054,9.61696352503971,-3.124921452625902,-4.9476918854505385,5.032596151846662,-14.365430279012621,-0.16494470035212108,-5.467556225417535,-5.248593834361922
34.22852720841203,-62.125551230296146,-7.960485476982207,31.730426175547517,4.6695989991371345,-11.177207805957565,-8.64702032272218,8.0054255682302,-15.847522042927595,10.38905209696138,-6.945174591233999,9.313104071424126,4.121663529981749,3.574549874619922,-20.094956848851083,-3.0699530759969034,0.8425142413170611,-27.873488953975084,-1.7505930898105186,2.7655038975794413,-10.780711476245457,-0.4058546523695985,9.636814112900376,-24.88570620921009,-1.2533665568559453,0.6128808420669317,-22.995519721773096,-6.134779623406353,0.5106419285082239,-12.947987917472195,-5.228630170530498,16.75784835413955,-21.494295279174946,-4.145751968055674,0.6432931722546119,-23.72561552818995,-1.830998971140808,-2.956979386826399,-18.333776858106553,-23.620386331985102,18.02547549522541,-5.887515278713153,10.288081526465978,9.581045992511884,-6.620428932246221,-5.2154286435816255,5.499282045206979,-23.62274101643996,-0.35157732739198577,-5.556582004468093,-10.57627324815065
33.99508959829269,-60.5534609870109,-10.037007651089537,30.62843967453476,3.4978433907116897,-11.299466338352175,-8.26409768313395,7.930219012664938,-17.156136664207363,9.997171970101542,-6.637367236968903,6.017927103265319,4.070030528483108,3.663825835799233,-21.75617348372928,-2.9457165520968416,0.8702002517041253,-28.524916878581333,-1.6316404366166415,2.7413115716329037,-10.998190552490826,-0.42506777168606885,9.696793672084807,-26.724873362011596,-1.2759204754022895,0.6193694131741406,-25.459966477750584,-6.102090288904404,0.5280246890338769,-12.41931253676429,-5.119662672691946,16.421068206290272,-24.360281988419462,-4.179455014114332,0.6832479269045636,-26.166213375088244,-1.7513257807177964,-2.9058213281655854,-17.896349686310987,-23.090809645474494,17.622952403528505,-5.821435168510519,10.172765491266356,9.394883701461664,-5.818899015379611,-4.987065962754065,5.133864899104694,-15.687537457932132,-0.22141698552558642,-5.497800240207894,-6.466505730956226
34.13124390289865,-60.88701259683424,-10.486085934484983,30.678295936415932,2.9936992099635873,-11.746034350206964,-8.276998479529349,7.75321720239143,-18.312655687590283,9.80618768674502,-6.654466768361321,4.904213716713167,4.198087096882259,3.4204297468124083,-22.5634703170108,-2.880801712703537,0.8816530614220758,-29.561082378827255,-1.596470527232572,2.809790144811517,-11.738860324563975,-0.35594436573594845,9.691557822077945,-26.516733513575605,-1.3495380429901693,0.5855837799758621,-24.282358864638738,-6.109149589703272,0.47923506631462615,-12.071033239804,-5.140920039046978,16.674536888421677,-23.780013552658517,-4.272419834389644,0.7655313679327772,-25.108891430997136,-1.8734546054053365,-2.9861587431219667,-17.92700007206673,-23.128036004523974,17.547566356165223,-5.818296626335226,10.424997500792353,9.551403671369107,-4.10712572605675,-4.885505737300968,5.02892240248612,-13.531379411000595,-0.061051758846584446,-5.513421440197322,-5.225725600250619
33.41416184725267,-60.33102435741379,-8.638884743173662,30.6646422742083,3.9528653117212893,-11.172930009547983,-8.290921610604007,7.9075800783646955,-16.45606637953447,10.131615450342183,-6.65617525486613,8.286192972525567,4.07308084904726,3.4860179757439287,-17.547369662824718,-2.736518321522238,0.8303630532340641,-21.051761134299493,-1.6945141886816435,2.6955664899027294,-6.55371613026,-0.5304525777430025,9.750200750069265,-21.37639961170379,-1.240374719784409,0.6826904834506173,-13.767485220524314,-5.70899768110599,0.2640390658648382,-7.942424686357086,-5.100912310695077,16.355985918234325,-18.050560696555817,-4.101965254502016,0.5940315455516191,-15.0658161969917,-1.5143257060244038,-3.1575728050685092,-13.939571562042218,-23.103262940447518,17.511821052176572,-5.823803354359022,10.297085153346385,10.050790251647705,-3.9989564490097944,-4.938450891916183,5.114645405884139,-14.888131300382568,-0.18026156116797054,-5.618182449509308,-5.753170388716012
38.14396251179128,-68.10319210689089,-15.99786679842434,33.59314979480674,6.749834923023291,-10.81446493832241,-9.591318740271893,8.566380652627368,-12.402678824904749,10.41077748981685,-7.548246492359444,-1.1989073075197894,5.216230466917682,6.901994768640326,-47.29888311780358,-2.975601420791113,0.7479835889139458,-84.31626847715127,-1.0027136322908392,3.239248819493882,-47.85542122365979,-0.21801836202269975,12.657633956202412,-64.22635196782356,-0.9884436547711584,0.3018253670130921,-110.48913472789555,-10.121863419036492,2.5137765718849554,-60.85416142769,-4.537418860183453,16.793635114549982,-68.88537722945287,-5.215075321602199,2.1318878303455175,-113.90575687640954,-4.018385195721198,-1.6083355787824356,-63.3764803641096,-25.528090530691514,19.171290667728982,-6.328027499450393,9.078913904267717,4.276225337023667,-63.950098011424,-8.151926824135304,8.411358807322197,-106.67467443463136,-2.024157914074056,-4.857096172845743,-54.64204086189536
34.46312647785559,-63.30963704476261,-9.144386966923811,31.866262582651142,7.870051576862482,-9.467558528428128,-9.423527158133462,8.33654507908396,-6.884912337159285,10.078037719406467,-7.238079640438875,5.131746655594875,5.079050423301585,5.437475524784648,-53.32030613218388,-2.932139869277321,1.0258632706646205,-95.4209399875014,-1.0086652552302848,2.2763159889308597,-55.99501131234103,-0.2660757570715293,11.94189545156884,-60.38190629352025,-1.4402531396097435,0.5774507749476679,-102.56528510558051,-9.500476370499884,2.6661603185375022,-57.459723213334094,-5.086953341164879,16.28398082575072,-62.820739893200766,-5.39913620432489,1.9642554645386323,-104.55596727497152,-4.451162174131331,-1.3632113970303674,-60.863426499661436,-23.70550502160779,18.159773243250083,-6.150743396824107,8.590601933725418,4.635733445182097,-55.738169619065445,-6.864137878832736,7.873995773944237,-97.0052156325238,-2.1120093609350867,-5.016790876664085,-51.18721965348444
33.569108789147556,-62.27793416928116,-7.708353763090248,31.723556029533906,9.740284969319147,-8.215394265491113,-9.18225846004901,8.53491481948064,-5.386259862207354,10.1162002856408,-7.102179293231161,6.563527402183525,5.136091152944937,5.913205118552959,-53.97390847074278,-2.898584553759978,0.6943731308197322,-97.37170517829195,-0.8692528550760793,2.5918035688693863,-59.45383489023911,-0.42336020017340825,12.334206316556617,-60.947549282028035,-1.3589465477788245,0.6679813871826313,-103.05953216706837,-9.525312740270877,2.763887791998481,-58.2665885317021,-4.817146058174127,15.968054485307965,-63.23695457008561,-4.891950552981135,2.2470740385274506,-104.01085499333398,-4.078169732380502,-1.269813298098477,-60.88109496569675,-23.921243938035655,17.790638964028503,-5.621713546653172,8.73963649522271,3.6306029309164534,-56.37634157846208,-6.951199222560008,7.572523538215581,-97.39030444544208,-2.1722749581841936,-4.607992942131591,-53.59810734562662
34.01376380007465,-64.10597625256182,-6.63245953715321,32.750343286137785,12.719906361120602,-7.118045311210693,-9.91535644879817,8.299062719957345,-1.936240851177734,10.505043978318271,-6.8050927037713365,8.994696476777404,5.5710888661642395,5.780235837390703,-58.48250597358494,-3.0873036552117896,0.7873069828252754,-104.46628588058952,-0.9434367717977866,2.3663159066525608,-66.03624710881769,-0.20131593664430622,11.913584417254583,-63.665099899154995,-1.7290685533517998,0.5476475748992421,-106.28904756946532,-9.941257419521099,3.121804815931155,-61.85742935026604,-4.740062924300277,16.844141077664418,-66.89918736323655,-5.030075613316925,2.2332758677080107,-108.28449634275881,-4.3326759438994715,-1.1064856379925911,-64.44762198293417,-24.270611143175927,18.54039438865234,-6.213398380281608,8.624660742199445,2.980580288883464,-61.445967561653426,-7.224323576062744,8.468501929751056,-106.79066123845844,-2.1607748507965887,-5.039700440981208,-58.499517269466544
33.19613481977565,-61.81630035747452,-8.354667299201749,31.531102849332143,10.290499106521954,-7.943311931775638,-8.986933979962219,8.201732410616039,-3.9218999849551133,9.915292609815893,-6.887111943875766,4.2534506874227604,5.1010161831579515,5.10049070282494,-54.09289491247676,-2.8259359112817477,0.6789098694990828,-96.57355554288192,-0.6455578110714865,2.5193620466400795,-60.754297216724375,-0.26633974970467794,11.117118671090678,-60.22656314270457,-1.4330118198260358,0.39992446259252173,-100.11776944158164,-9.489604274497916,2.760201716217873,-58.263322513108164,-4.441478169098663,15.954221829059973,-63.47842768189579,-4.903789174413558,2.1496259213783513,-102.51384683463685,-4.097188482255951,-1.092271991490681,-60.50189882920921,-23.6456298828125,17.761825561523438,-5.814741134643555,8.409403613212731,3.663054815322949,-57.26657351370719,-6.806430121648007,7.637983756627854,-97.02829504511085,-1.908882786838313,-4.411820390805579,-54.206587594164716
33.55816430290138,-62.38056437731067,-8.545781280724059,31.99867393871247,12.230424185642649,-7.049199347798808,-9.170241047560351,7.992949527339403,-5.1996852179863895,9.657180918702428,-6.958235860409939,1.9508911357865042,5.264286669428686,4.524253739055438,-55.5248077486919,-2.8764180886145616,0.6206495343019737,-97.28601367786185,-0.59689274739198,2.443411843342749,-63.86898480311248,-0.29463071123739837,10.721677301005402,-65.87027658191367,-1.4445713517834102,0.5349427306344471,-110.87095204536212,-9.86554275966793,3.245320114037687,-65.955873946983,-4.621762281897088,15.378252382178603,-69.51644163961261,-4.939917595572582,2.1498394308274613,-111.75453624148248,-4.574529708044165,-0.8165148611728594,-66.94680560398675,-23.898406982421875,17.84983952840169,-5.871449788411458,8.153751623285691,1.4127225618153085,-64.55585967327349,-7.143186848064675,8.160141724363909,-108.83659666851905,-2.248681317069035,-4.253043100194291,-62.127302758162635
32.389634453650054,-59.98599752737343,-7.339022973533868,30.74518275571087,11.77403687437416,-6.957863986548465,-9.273640925784491,7.847186345142948,-4.034095216722483,9.606585637595726,-6.395418053102856,3.266313791701517,4.913461735316734,4.406886685766257,-55.588780435757876,-2.824639208424081,0.7310472054262315,-98.2001851474585,-0.8170748214951953,2.108773570301875,-64.20253671455208,-0.287422830566732,10.06777097832308,-62.76623015148663,-1.3771944724723804,0.7086974660192352,-104.49779021736623,-9.698276371100485,3.077744715560447,-62.589639581057725,-4.758928215319493,14.95774534311388,-65.93123527123588,-4.961101885112919,2.0191436494636217,-107.76248359051927,-4.415171004960746,-0.7267950862264007,-65.09626567166572,-22.934970487587762,17.250549036790215,-5.651503152687081,8.003684906446901,1.7181034762787153,-61.407495745649435,-6.736411133822755,7.824885135390974,-105.24048327542816,-2.10728457450626,-4.199384726416745,-60.599777778221636
34.21442471270193,-63.42452959337927,-9.450753804288846,32.688382436414514,11.700533486339353,-7.5788368467917735,-9.209770992557202,8.039570344149075,-6.213215622494971,9.787835011638832,-7.4066023832984,1.3733602330747303,5.180758181408743,4.413118294029008,-57.55602750948723,-3.0308975478918954,0.669741088268376,-99.17093676407715,-0.6968932801618332,2.3727823365649603,-63.54671537492618,-0.4248482495109833,11.096044415372006,-69.3529996147284,-1.504129934199047,0.5514083674042427,-115.70727828765898,-10.08071187781713,3.367843500133821,-67.3463162599689,-4.877509028339751,14.950396701677358,-73.20328040645893,-5.033867826600818,2.3363058578303884,-115.33340468284179,-4.77892378565048,-0.7444260517915356,-67.91712931693574,-24.223790486653645,18.03705342610677,-5.910736083984375,8.035936084558223,0.7024546745327305,-68.30090995510274,-7.440947077266411,8.208426785680583,-111.03762918745308,-2.3594720184237175,-4.3134833166439455,-63.20042006067957
34.362765195830114,-63.28582372986668,-9.831947481690982,32.2455916229547,10.810013162566845,-7.85972135831447,-9.066449267579879,8.014576095945332,-7.897996865983063,9.260116166977353,-6.869155805636313,-3.8364317586351286,5.235173912549711,4.108749096678879,-59.05603921328268,-2.9112351457824253,0.6307437567865084,-103.30999669554903,-0.6095389629602875,2.351843739314082,-67.8677069754518,-0.4358581406464291,10.589504265034943,-68.52038792899097,-1.4224637384562644,0.6265751116679145,-112.50552144384766,-9.968578726094846,3.297052855535473,-67.53155338657926,-4.768542497300724,15.028352165808577,-72.08711347275315,-5.155107992088113,2.195943984463195,-114.89327709883842,-4.837182418403067,-0.7145577102957309,-68.70241780776882,-24.018814086914062,18.00989278157552,-5.948842366536458,8.258398699517437,1.053192637081927,-63.09886197300644,-7.018357685433425,7.911888795009273,-104.64818559901852,-2.098306112618545,-4.165636135706845,-60.703289171578945
32.6672359288925,-60.75864040156392,-6.4856695028465765,31.5280623187323,12.826582417535613,-6.6517742421201005,-9.633540038381085,8.07348765914208,-1.6263232049278784,10.220466329299663,-6.536230427714074,8.264623845255722,5.226719605093899,4.430349943381795,-59.76173399464944,-2.8051025659981454,0.7471557255875557,-104.53745027912241,-0.9413068334515273,2.181584311302061,-67.08989049527709,-0.196967375617758,10.32511921052543,-64.96377348594577,-1.3938261653271695,0.6670513472311477,-107.57111987718919,-9.910003076412492,3.194755919627333,-63.880771608431495,-4.946586496825172,15.161299541120641,-67.45093596930367,-4.9847437280571,1.984328694629835,-108.73022208148643,-4.448037513798584,-0.7398546134469868,-66.19847566841717,-23.402711232503254,17.557095845540363,-5.904337565104167,8.242474286709676,1.4110795804800809,-62.2052910126171,-6.851421293021166,8.162139315088352,-105.36515861930705,-2.188626138695284,-4.402125655901366,-61.30417383936043
32.686035689113844,-61.486454122449324,-6.51836540915,31.771179403161153,12.903309507455482,-6.753097144785962,-9.363958900246823,7.992399799779418,-2.6918816416633677,9.921530393004028,-6.8422736196987595,6.240641125269008,5.215043042441985,3.871017919612992,-60.179726583200996,-2.9131483183753946,0.6828408524947953,-105.32782232462277,-0.7962385188324271,2.2756308419705644,-68.28670689831468,-0.24710033766292563,10.253192945997275,-66.6860751889204,-1.3593963334234065,0.5707938578544138,-110.07939720646351,-9.7600200794595,3.1424619650034558,-65.50704894196973,-4.764389468935806,14.6551891239974,-69.78460599269404,-5.056257021678703,2.0806589249464578,-111.18433452657503,-4.721705266276161,-0.7655430075563053,-67.40550340618896,-23.627187093098957,17.797861735026043,-6.047047932942708,8.048410400804057,0.7982637130201232,-64.66314209718418,-7.080059652912098,8.132376895535277,-108.43318074611703,-2.1488107479180436,-4.243824317870912,-63.16566689761794
33.848010757661854,-63.60408142799297,-6.638366456769913,32.861525237151355,13.740594203906602,-6.649777580625856,-9.620252133023232,8.294416565138476,-2.7020691083608956,10.19635062696623,-7.158530575131167,6.122027351379316,5.348453056916728,4.0717910511623,-62.55082244405512,-2.8830969168890355,0.6790034280444158,-109.13988201746217,-0.602079166158882,2.223425103577485,-71.54237569365985,-0.4021029479325473,10.728398869349258,-68.74043290722275,-1.5178423022116252,0.6310972315519628,-113.93954742255299,-10.13396770861899,3.3329340165012957,-68.25531006171458,-4.802215093361666,15.175346759839476,-71.55428065396282,-5.150064935512021,2.2691077848610366,-114.48943769944192,-4.824639466658009,-0.6486372387763807,-69.94613160432912,-24.354503262356612,18.33134432403299,-5.985427763818116,8.307585514878454,0.9605163549609855,-66.14157024130024,-7.2191060383542895,8.303339236880657,-110.86211947728192,-2.2422334637385632,-4.224459110958276,-65.36533996941544
33.46723873978885,-61.38550437916221,-9.454733555135656,31.662078622126163,11.697754104793676,-7.332007626636378,-9.153422443397956,8.01953363721162,-5.747007853801036,9.680581933237962,-6.857732577484167,1.328902496692229,5.16950554363228,3.6923863867208078,-59.0637503905504,-2.8853321604149564,0.6107174056852861,-103.02650956815229,-0.7652137894475041,2.2743807515770045,-66.79418079378361,-0.4097469541311057,10.108789974093964,-66.07207284627663,-1.4357140374634387,0.5726611051668443,-108.32380981039582,-9.81136230684435,3.066202168913232,-64.28878433478049,-4.749437490356315,14.670445632779602,-68.77070509258748,-5.0295001183619545,2.07369110217758,-108.25401428876289,-4.525429383283838,-0.7793415956502661,-65.44106395854469,-23.516489664713543,17.67195765177409,-5.828793207804362,8.265560711799438,1.2072903819370644,-60.0118841943617,-6.857790563845552,7.834308443604395,-98.39994703310151,-1.9887390286874735,-4.222207799512016,-57.58805813794728
33.63753444870111,-61.94653949841854,-8.914662302711921,31.865383808257878,11.71968012957007,-7.31132404658869,-9.275739190925778,7.991823364463161,-6.340826400628252,9.596203115415891,-6.929963663848419,1.0194500646490516,5.210500642888298,4.702149184440166,-57.136431043600034,-2.8318972049487727,0.6713922286609161,-97.96628531119013,-0.8270511042890382,2.376414219459416,-63.13072139474815,-0.38189326365092074,10.662915416551977,-67.35176085680752,-1.447749351627453,0.6423968783209243,-111.60992289640741,-9.958382630040518,3.1729402844414403,-66.38708331229921,-4.944405970670384,14.860503506314615,-70.69245566124664,-5.010220441709273,2.0506330972354836,-111.67452000148357,-4.68378915013511,-0.7455224014694939,-66.9988124034029,-23.753738403320312,17.842702229817707,-5.942306836446126,8.163920232753576,0.8608981827155541,-65.6394551116,-6.975634570837492,8.14533601267539,-106.2962288044776,-2.163638882881355,-4.2590806617637,-61.861146849945925
33.01496036377534,-60.75783064536447,-9.372186702151433,31.030623596001025,10.685857500192855,-7.722235075247041,-9.014560535435638,7.777633326362996,-7.418284409115778,9.383357410583987,-6.609938872409029,1.3296876853236543,5.111778697276771,4.195072697166795,-52.29301895239107,-2.9513765330501265,0.49659040137326976,-90.45944597118148,-0.8038131735651107,2.349326154843819,-58.0136480423155,-0.48012608294897224,10.275382458104744,-64.05540976230174,-1.424059260465146,0.6174885602786537,-105.70311070594079,-9.545648940127888,3.0495042848031026,-62.35762240121102,-4.713384263803411,14.57765035453159,-67.85886605232469,-4.865483629102012,2.0836519955982395,-106.59731818660578,-4.520960487828177,-0.7805311652559191,-64.03960843879628,-23.18898646036784,17.455130259195965,-5.736959139506022,7.806694432051844,1.1770904641277702,-63.7149524788748,-6.938866595750045,7.866926014763411,-104.16610498527585,-2.1344810715329343,-4.1947041986127855,-59.558754176127536
32.12871791552288,-60.05107316394159,-6.417017912868871,30.993154184621087,12.020006318572351,-6.967611915919421,-9.256608853667961,8.079088530248201,-3.3634244549701875,9.64423283554637,-6.723943845897008,5.147483944500831,5.044726210038646,3.7966687845786393,-57.24017398756167,-2.7894862449404614,0.6107764227163338,-99.87120974286877,-0.7813397642309404,2.211922056674686,-65.01695269041531,-0.4293097495585399,9.884766129490483,-63.00974243770653,-1.3932289463850733,0.6394234041471742,-103.22459451881521,-9.684780358742989,3.042594049897346,-62.41803893816434,-4.895705715300335,14.59072815884246,-65.56779910746327,-5.007112821499965,1.9085015339786482,-104.81410573073212,-4.519356302820733,-0.6990054653783578,-64.69028691402028,-22.95919508734528,17.395539322449437,-5.78052893000731,8.068429939177781,1.2016240266275002,-60.598628106843364,-6.737694398465476,7.850592080992616,-102.05622705499626,-2.028011235320505,-4.148464917324276,-59.99828149462936
33.74712980540411,-62.36535255798618,-8.562401821111886,31.793785830061342,11.586846415210141,-7.52697111691743,-9.397244805700353,8.207188214338139,-5.6059377124606025,9.516542881140248,-6.689934012927755,-0.0546608088208164,5.182195533713633,3.4367524003372023,-59.50764702691729,-2.9831209073370033,0.6136994314275783,-106.00761282816602,-0.7556460473347314,2.249634740571366,-70.12995478718877,-0.47853901739310695,9.920412343915155,-65.34994883143139,-1.4596140574432788,0.62969247077351,-107.46877512499877,-10.10318491531712,3.172358822679525,-65.66830907913366,-4.916394765042783,15.024043365683697,-68.63352660883805,-5.193236275378081,2.0062794728556685,-110.307681499564,-4.716249862913635,-0.7121831480345886,-68.07944306742384,-23.595816294352215,17.87652842203776,-5.877187093098958,8.348341309634906,1.3917197138943418,-61.05764452975729,-6.891635089351983,7.917128047534501,-102.62555951355239,-2.009309811246549,-4.278565806626151,-60.45066632168558
33.788559504520656,-62.300460908340604,-8.332142683696937,31.770530840166476,11.986754375936627,-7.210110933043815,-9.495076241521266,8.1525339811146,-4.41524790367195,9.655552294855644,-6.559005162917678,1.6862099964715511,5.219756904569221,3.670234067901195,-61.00532537468397,-2.855344791207829,0.6854997794771996,-107.99400844152605,-0.7830580920326194,2.055425017899147,-71.35432265060835,-0.45977078448808345,10.105363209732182,-65.92600629437449,-1.5406139440860487,0.6016127148674396,-107.76012690208246,-10.101058521933746,3.262099146962024,-65.51723378797719,-4.923205687412366,15.298379115374471,-68.60519561473426,-5.156860006483928,2.0609653183250107,-110.19150825228992,-4.530941392388511,-0.5638069103907998,-68.20111306632022,-23.632286870015644,17.960695542982094,-5.872141719333714,8.34490984941892,1.4068136825934692,-61.276005291512405,-6.942246385470001,8.04471649426223,-102.15222422232127,-1.9965715810311797,-4.283894339733541,-60.28282327566124
33.39629972757252,-61.574350461157884,-8.599848361369498,31.496283401676767,11.3170452336928,-7.69977749706466,-9.325237918273883,8.1533101834187,-6.4275351662744855,9.38003492783802,-6.51634687129117,-0.6193228617178339,5.082898438669238,3.34671229354648,-57.49990769369352,-2.842040217357981,0.6296577185128879,-101.6356980009936,-0.7453448396817745,2.171628910634223,-67.17626976094185,-0.5135649538431085,9.62622758905337,-64.3677327741526,-1.4782949141477861,0.6698043814399327,-105.1531860186722,-9.900321936880239,3.0676965476875497,-63.9055582026157,-4.836587451770119,15.024241898115429,-67.05327252153066,-5.138164351401744,2.00555592156317,-106.14132180722306,-4.578955621230693,-0.6581544433767088,-65.10808487855587,-23.373695373535156,17.828838348388672,-5.805686632792155,8.371023143187967,1.545012522518377,-58.474370266991464,-6.777879601120734,7.756522414602716,-98.04090573318996,-1.7990384391908918,-4.198259258413418,-58.06834719711608
32.98602937483874,-60.55373245722411,-6.939629587812777,31.148290974571182,12.765449816067147,-6.618874110435332,-9.630048590281513,7.887200341895561,-3.5163243108833377,10.148785704617353,-6.250048126929847,6.6623104696859246,5.169158795171545,4.204620560904954,-59.455374304909235,-2.777559912551876,0.7104209638755107,-104.66426915979154,-0.9662668084281231,2.1593449401617746,-67.03966405537834,-0.5353534338554652,10.127240243109915,-63.11197730676478,-1.3919749576887448,0.7384246498675454,-102.70352581707209,-9.844589695925405,3.097424636940488,-60.948600077971726,-4.8487835031198445,15.667240529943205,-65.19421546679631,-4.995604597068826,2.0872402305175783,-106.41160915325808,-4.331626898174757,-0.7414013248342366,-64.26414470574524,-23.182406107584637,17.685704549153645,-5.633838017781575,8.381461854313207,2.2284051596512158,-57.905197069930914,-7.0249942348734296,7.876018689423756,-101.05865832848599,-1.9262458484216254,-4.275281697311148,-59.29890656262406
35.90473929486235,-65.15294857238477,-9.846940570191576,33.17969432328918,10.388291652588489,-8.889837762521777,-9.748891236688143,8.390751629801924,-7.387626040480842,10.24360909491925,-6.752795098291256,1.2061261406757928,5.033736847760455,3.8931481913726116,-59.89207697812609,-2.9943752570879183,0.6222407530500905,-108.35145205639002,-0.7900268749313315,2.098914221871299,-69.66522793948032,-0.35688973123071027,9.950308063436182,-59.241403579039684,-1.2015322472446412,0.7091973514302509,-89.90692527078568,-9.491914975952415,2.735882584275004,-54.89299728519456,-5.1494947053121,16.871750927533913,-63.37975228757565,-5.425608629231566,1.8521515811084726,-108.15426462363727,-4.71974401301589,-0.6962000941314944,-67.7593465611403,-24.60249259447491,18.69395267084811,-5.992896224397396,8.781351951677467,3.520021177449898,-56.57274297299748,-7.090517048308105,7.995672676783229,-105.14175863831527,-2.1216407808655124,-4.379152321839181,-62.11786043154226
30.181899085698223,-60.637662654210864,-0.468054104135228,29.918181444141876,-2.4150186183236078,-14.494058064795146,-8.4119809908521,7.875590210286728,-11.150854168255904,9.155846926691806,-6.486270164789339,-1.9126740957662747,3.5062607648206003,2.363831571608658,-2.9759142816502266,-2.9476655953317645,1.037862851675343,-19.29397282027418,-1.7918857682574754,3.097277085225629,-15.015562681573032,-0.4727617925066568,8.515318762383375,-8.435868626992558,-1.5072745638436047,0.24305458080496534,-5.746976172739089,-5.267381761155405,0.17490563753446162,-6.854622815426271,-5.281200527514973,15.976780642465647,-5.199535430406143,-4.3802229142450315,0.43661616423417954,-13.910940486626005,-1.2511533952616312,-3.214779076868053,-12.567911338420712,-23.561761960973104,17.79519867308838,-5.880807107624032,10.683447193132116,14.026591885343867,7.062995272409478,-5.407567788696897,5.382445543255329,-22.96098943375227,-0.7560646590603368,-5.490262950850922,-14.33142263917526
31.5615119731721,-61.544882935119574,-1.2068976178946167,30.880202590934562,-0.08669595266723003,-13.328168407563913,-8.790885556365236,8.209037093056173,-12.8322976191451,9.849854562096224,-6.739349994347985,1.5903887103592673,3.7292049001408025,2.0740991817948635,-5.478913015917796,-3.337427702818117,0.858459305911476,-16.26441861742275,-1.659529934815665,2.88201009637899,-10.037693578892076,-0.5097491038898382,8.29642343385223,-11.082698181537934,-1.4351439142820077,0.38995817451655373,-6.872971709533978,-5.837075564279728,-0.165808866524063,-6.35323672511749,-5.170059675770056,16.874880556639187,-7.889931677400451,-4.34414657669512,0.3151271896177536,-11.501413902395342,-1.1282163857523864,-3.286487783322603,-10.047070548581315,-23.56495539347331,17.91290028889974,-6.041579564412435,10.75647298617792,13.495450715033883,6.565160074179708,-5.063229306780692,5.382691269169553,-18.5139422908972,-0.3019794158249137,-5.633542118200104,-9.746626733727044
30.906641329280387,-59.59702447014403,-2.742258079717302,30.265487252591868,2.041148360979258,-11.969440506451912,-8.597919974779186,7.998649371338516,-12.83827331522349,9.994667589255164,-6.672275907296068,8.758048027279791,3.877977507366845,2.4293138479164944,-7.7519127234609675,-3.049159326728858,0.8996677501302256,-13.10774173477575,-1.7645471816197131,2.9312266538814824,-6.091877556646275,-0.6399454612182055,7.9489529091934985,-11.614551525591898,-1.2922464960957971,0.4349058468400853,-5.097707039612125,-5.4927158304855555,0.0524203180425333,-4.583877056728016,-4.993300733841662,16.290197059543996,-10.104510645673395,-4.065444858238714,0.4642556056754455,-9.746294278994647,-0.94638523677189,-3.2456059380258773,-8.846308145179917,-23.117937723795574,17.38036346435547,-5.860283533732097,10.633886120621371,13.566201680284836,5.174239732218253,-5.034038639840827,5.000112571362955,-16.099629225953045,-0.47450504010975947,-5.545962290376855,-8.33684092028948
32.482170950856236,-62.4137220620672,-3.5130741356572437,31.619372410880818,0.8383329850103235,-13.079975834186326,-8.990724577183903,8.186365172296648,-12.951247629692245,10.311950564899576,-6.880336566307663,7.883517713315503,4.021422977570165,2.722881310663926,-6.7515553366308145,-2.9824993836426614,0.9645179178874382,-14.672496117966523,-1.786657784455585,3.0470533395604256,-9.028028172713276,-0.5500346243157695,8.402484817290334,-10.205734804208378,-1.2158589334075343,0.5510988477639001,-5.826266787260512,-5.652773310664675,-0.22995248797133339,-5.247851248971686,-5.350838437371395,17.097301207645934,-9.258281028639752,-4.147863623734536,0.5601988804672432,-9.143987792724223,-0.9858084230440552,-3.432524192424415,-9.207830352969587,-24.124302706843135,17.94138300092814,-5.873305201549292,10.65617200174478,14.303603504369613,4.553231462272687,-4.895770598629841,5.067084292467897,-11.533496773778188,-0.36982412918938,-5.852094715811458,-5.732856453804781
30.48212785309244,-58.45146595268795,-3.1089566346157493,29.561684669057286,1.563658895015662,-11.911960661680515,-8.50282664544452,7.776355673172468,-11.807203583358314,9.453743553306142,-6.685674697812612,3.7465745491486984,3.5701075574544796,2.8898931034590163,-5.081794106975046,-2.7743308859020606,0.8456835922519033,-14.47581418601689,-1.7015591878383907,2.8192488442445325,-8.5617658974076,-0.6239069252721046,7.933441615715981,-12.097783524140219,-1.2701748291033994,0.5301583753786436,-5.332566870545756,-5.193540750347913,0.04570947052305694,-4.326173224676386,-5.046435244296396,15.886361917453376,-8.773179199275612,-3.998365821189225,0.30878764963123967,-10.612206670506573,-1.267282426951506,-3.199202214504853,-10.413664973805504,-22.42281020190613,17.049493916173557,-5.695197255098506,10.0954068605814,11.448461504324703,-0.5724224412176181,-4.943977813166684,4.943071411042401,-16.92891566665256,-0.3524174630956141,-5.382167965238658,-8.628671532551866
29.944999313454094,-56.66665021227882,-3.530348276455634,29.00282296038411,2.9616167213912075,-10.754510810758838,-8.159177771281488,7.645571652129149,-11.813754358502237,10.194328169978858,-6.391976676308704,13.793501681240917,3.558896464631811,2.7814533843253635,-8.231130692256984,-2.7329961862482985,0.8807339758369266,-9.933570620732242,-1.839408523447794,2.8739868160192343,-1.9675420928327456,-0.5969905738508188,7.719000886643392,-10.541857458678528,-1.1548310358984446,0.4861693245814617,-5.062808982262203,-5.162376412270166,0.06735621691170096,-3.5422201205576864,-4.984258334222945,15.28784825222021,-9.057414877203096,-3.815111504362148,0.40367307616555825,-6.946744226452446,-0.9930227442325009,-3.166418637988192,-7.558270999810829,-21.96441141764323,16.526139577229817,-5.572519938151042,9.993577493805434,11.915323711796859,4.146238677781765,-4.58858393774702,4.690133330339489,-10.671142868291971,-0.22472472755740833,-5.216077761116737,-5.028607010039341
32.21776957496085,-60.44624077152315,-4.949385880014199,30.76699638917702,3.226703067208863,-11.488221335917167,-8.74864197162949,7.928242393224763,-12.123669277519923,10.647505928385085,-6.791152702215707,14.364929126024336,3.8151423385154986,3.0703626054929956,-9.316515016569005,-2.9311165684013623,0.8503887829846265,-10.746918011580894,-1.8941221996284698,2.9343056390790956,-0.5458877237567842,-0.6006663322820638,8.577657662709692,-12.137495949854857,-1.3577731258088122,0.4876811002123888,-6.589319866394946,-5.399545313698475,0.04921638020906205,-3.7885978503144493,-5.102975529384701,16.805618497432548,-11.403951614007747,-3.9954651219935635,0.4512975754691046,-7.137441047382739,-1.1941637074349558,-3.3469857738545503,-8.654320704451518,-23.118297576904297,17.57818094889323,-5.868468284606934,10.48515610743596,11.948234835320791,2.172707195852555,-4.926082576148908,4.890703922484197,-10.857142437390541,-0.11019189248317397,-5.59245007693032,-5.111507081289867
31.428405197251006,-58.1962500817398,-6.152956947188559,29.521208844188518,3.2162769708830683,-11.026397833904488,-8.271046542186092,7.572955657843643,-13.505024200560745,9.824857367852182,-6.426001194523596,9.085171195464513,3.694726365647321,2.8003825810673533,-12.96817359170923,-2.839383584149239,0.8002051915066434,-17.380605798747865,-1.7196363508013668,2.821321261352557,-5.346826139367654,-0.5124489217833067,8.371563313469093,-15.154613875989158,-1.2955966981566795,0.4820930674477979,-6.099900610350519,-5.146243766203431,0.11968550519757365,-3.4317472423944646,-4.844799951719821,15.928407605676114,-15.550283568898033,-3.955656161960564,0.5046348042848843,-14.659695191190833,-1.40856534548006,-3.118369295668078,-12.082624956784736,-22.181826571718346,16.8509437796432,-5.582483683207528,9.812935960590481,10.511844674384058,-4.499314961401143,-4.817549717893894,4.860997000985274,-16.843396437189153,-0.1958243883006048,-5.283696237983622,-7.866633442544725
31.05325320366556,-58.48458164473896,-4.189324162404896,29.939269402839344,3.966906961953613,-10.785237092299317,-8.566876345221031,7.78603247413803,-9.930143241479627,10.474173937061565,-6.509301306672948,15.334401103091443,3.688924801452879,3.091996487761404,-9.11640576262406,-2.876891094263852,0.8042345836873794,-11.067781932151577,-1.8206528447344186,2.8651803626442756,-0.6627742187627903,-0.5749715714887256,8.494586776045173,-12.232365602944773,-1.2799610718712537,0.5559305209141664,-6.389400271394995,-5.234283465403277,0.04289318982361836,-3.015378382578731,-5.04512695087616,15.703977451214156,-10.624794231880136,-3.8692420530840104,0.45680037506781307,-6.816764656678707,-1.0996650402996009,-3.2156713081476824,-8.604708818634334,-22.606558227209423,17.093748840740698,-5.6340242371879645,10.12938487509631,10.751836485208834,0.5693583985532873,-4.68879086616059,4.848591545155477,-10.51999764620729,-0.15298866947869152,-5.436404446045114,-4.89931168467817
32.06669517177129,-60.057305102303,-4.920854269685473,30.502327515417893,3.696014768209004,-11.253710638553416,-8.604602129208638,7.903686418074305,-13.508576537859943,10.53625868056106,-6.826995389893388,14.542774764801583,3.8328359427721512,2.7602000281883843,-11.414031945339827,-2.917566354955781,0.8531106313433102,-11.108767664114842,-1.8542643091010376,2.9852114080367778,0.3241046913804316,-0.5387588717112777,8.46140099970742,-14.274111677328186,-1.3309064518256866,0.4405828472887756,-6.329598114273696,-5.261124511212147,0.005589969679940678,-3.391045277765612,-5.052311634384274,17.00497590554505,-12.584888461598283,-3.962395963415915,0.3283782738399958,-7.054305762029615,-1.1727126399824817,-3.3156457381306037,-8.569715623138753,-23.00096893310547,17.42180887858073,-5.763988494873047,10.43576156089633,11.7350014148138,1.3449925339545723,-4.805585558337202,4.8997919718716565,-10.469145035628781,-0.17231953878023623,-5.627185293994141,-4.929738728553609
32.29563391893785,-60.55474469514493,-6.023790809112623,30.63479057824203,3.6745096595741438,-11.163042480076456,-8.64883107728428,7.85370359025325,-13.223481659410716,10.637988848723287,-6.915361842682299,14.735705550486628,3.9290562384768304,2.9671773036474023,-12.681761264514229,-2.7942987414655036,0.7907391439323422,-13.083751709033764,-1.702515781050583,3.0274364197928665,-0.40759808278511683,-0.6090324080530296,8.979675423259875,-15.017573018873543,-1.4185413410578196,0.44122905647772176,-6.980959900479448,-5.273456670603091,0.04404921308406132,-3.1578333784462873,-5.139441467968351,16.90695829814472,-13.537049210354033,-4.132185388249437,0.2147309980385809,-8.905840685385892,-1.2199645011948217,-3.225133514709977,-9.50492103660155,-23.201640622562223,17.516583716750013,-5.8243785328500595,10.521796717782921,11.152711732154557,0.2706600579931571,-4.883191006446509,4.835104433672851,-10.885072465088895,0.1280835521877768,-5.58885676730181,-3.642980199605286
32.63391262728729,-60.8915290764809,-5.594046014620542,31.06092695430786,4.557926742557483,-10.949393724527104,-8.693235346417955,7.981873899095011,-13.004147657990428,10.635470825288175,-7.032095193228258,13.754617928583928,3.8691803150617154,3.064276666616493,-13.158372073729105,-2.865346018605758,0.8588454207904457,-12.738007055331195,-1.9109015128755809,2.8479271068807974,-0.6138518281727402,-0.5298094470101903,9.005463567363257,-16.58662937024071,-1.2343451858071746,0.4838668556045171,-6.93810763643967,-5.315697193361957,0.05458012707758536,-3.4400959778943143,-5.140588637605908,16.91532557215253,-13.833674207537806,-4.1063565803265245,0.3577549505829363,-8.199214303407143,-1.2857057831849825,-3.3823354242877124,-9.439105541607878,-23.09426228962431,17.76186771393875,-6.023020069470083,10.463161536070578,11.292907972835593,-0.24416548395727855,-4.991459193667167,4.93841408901581,-11.113783891134846,-0.0850376542739878,-5.59570100345628,-5.036528828255691
31.706816444019093,-59.63974217748025,-4.657305791849183,30.371570108137064,4.360700484354429,-10.613543655812776,-8.603373929475612,7.848269258600573,-11.666953951695595,10.752617463329798,-6.629814337013687,16.220827579806574,3.7982064428232394,3.120062000166234,-12.890860109454488,-2.952716939904301,0.848176047486644,-13.011394656137275,-1.8714635034224756,2.93602257028431,-1.5067869414418265,-0.5090101140259874,8.77585369223358,-15.45964086394409,-1.317800498105797,0.4873798895300343,-8.125539350908403,-5.270198623299081,0.11098708369534667,-4.200300527345951,-5.05075147475414,16.78636822077291,-13.41821462907346,-3.947540985654236,0.35930057778838465,-8.395349414929662,-1.2249079038589568,-3.21213715723126,-9.558894097801094,-22.8302485148112,17.33372624715169,-5.810692151387532,10.186084979142782,11.24929950772009,-0.1340957430561239,-4.93340848958757,4.879227410116838,-12.262880385887458,-0.13013605774659048,-5.4471994644818915,-6.537455418857017
33.5290579031496,-62.43859956559547,-5.730549625247463,31.846402726933977,4.264456953453576,-11.494738655886337,-8.810426847473032,8.137277762761713,-13.413635348123478,10.868852931448686,-7.074666457425572,14.387002789109042,3.9518660464824484,2.7370338396193357,-14.281938269833496,-2.881211014491741,0.8559915591161169,-14.432306694097264,-1.7984170363467864,2.9606022001176453,-2.034112672761106,-0.5291360567303318,9.131138363818549,-17.350650117287664,-1.2188455495044102,0.573818333571393,-7.409476577144981,-5.5831855025038015,0.026440046733477645,-3.81383226129339,-5.176894746817568,17.59717361313378,-14.302162629550741,-4.180171433224763,0.448627372647968,-8.802850303515738,-1.2242757325204057,-3.47362230289071,-9.892425406442532,-23.8037916913072,18.061974367549052,-6.059376241581865,10.723679829818252,11.851739863360455,-0.01747762780179359,-4.9404243339976865,5.064279855830548,-11.025103177096307,-0.11043913467054008,-5.785986640978082,-5.228092583381631
32.14647277881856,-60.34248316132473,-4.983378328717255,30.764018058036385,4.43750531740697,-10.939104845019962,-8.665138378589615,7.960234582319067,-11.621258713685199,10.629817255591098,-6.800628643820967,15.007054505409783,3.8794837718803645,3.449119229777905,-12.259258235955562,-2.883847141053162,0.7561969276336297,-13.192377546784686,-1.8656097965817908,2.8855694537245538,-0.5154537660280994,-0.5499215523068202,9.252142777712258,-17.08603447899291,-1.2471551444709086,0.5133639058610145,-9.796600645125194,-5.43695914564367,0.10669165648156137,-4.526049254115988,-5.017571509052594,16.802985869206392,-15.174690148533662,-4.0750984761940945,0.46366597539888305,-10.286771793693935,-1.2796039798028012,-3.324698761601166,-10.235873304706569,-23.057557225503796,17.58967575261789,-5.860856960115151,10.271233068460656,11.530652604023667,-2.2037615626648646,-5.025214740953342,4.874972619332353,-12.742213166069261,-0.22844046307743124,-5.605897839016076,-7.345596825636321
32.51176629877882,-60.95715463394797,-4.887452930840183,31.284319823541654,5.019210977082952,-10.614613363842627,-8.70484631328787,8.095726374481732,-11.444412225295105,10.754130854571969,-6.934211502621371,15.512405924853065,3.9420070125330615,3.4304413901084794,-12.437114584539325,-2.943821134636915,0.8415869198707148,-13.246243931558965,-1.8740593133541186,2.96868835985288,0.009757199187760857,-0.5411904145783685,9.336503923932739,-16.396902703841203,-1.2522209704459817,0.4438995655210123,-8.288805569019564,-5.493489748394031,-0.05530591319859618,-3.681465671292891,-5.156220289862422,16.66306861626993,-13.643353321147117,-4.220859328877348,0.37828376879231396,-8.415389321037992,-1.2698730971314283,-3.4600814523641574,-9.37383435918537,-23.331221064208222,17.742275087334686,-5.978275249299721,10.516550657936884,11.1813594073869,-0.7765154759546435,-4.949064989020684,5.055877883588196,-12.838010140489772,-0.31505187919823324,-5.655236095652925,-5.092241311831407
33.153084974797814,-62.031567118288756,-6.224998509231141,31.392261620789014,3.568303904013056,-11.464556745783304,-8.906506552191525,8.07069660003256,-12.730420604292979,10.528291346963526,-6.796034036899859,11.39861581507649,4.054936581834325,3.4362339433298583,-15.202663764174702,-2.909301773674781,0.8658066715568417,-20.827256228354415,-1.7623809467693838,2.995687370080113,-6.615904007978002,-0.4371259181736911,9.45156830673434,-18.67973957052012,-1.3206213557644664,0.5739735704084091,-12.469830300290502,-5.530712744355809,0.23694922385532272,-6.111137521016666,-5.198634618826282,16.595940716193194,-17.395252363380607,-4.068341966038073,0.529185412633204,-16.614401726113428,-1.4355444910358302,-3.1227931449328756,-13.527280857759763,-23.61893061517124,17.996896260679414,-5.940460153438127,10.377987799926336,10.700972997609606,-4.01707253624896,-5.069152648674237,5.046211939032818,-15.45234109542094,-0.13229649832083976,-5.678005238109783,-6.858993727988341
33.68681570819791,-63.245151806697606,-4.473693204341352,32.51272144548091,4.664855478622788,-11.23198186524497,-9.18463096157441,8.297814062487257,-10.5752782539036,11.164132431128175,-7.085601225036723,15.590510229218077,3.9879334656668903,3.577767677338883,-13.898358083998913,-3.028567680267761,0.8578948229796118,-18.074594271436926,-1.8989772919984063,2.8265672596664033,-5.288722513117078,-0.5664888610697961,9.52278873744184,-17.01181134901915,-1.408699605978647,0.6100655999835835,-12.744975812831049,-5.65362225379264,0.22511122980473286,-6.633005269288321,-5.494069368415133,17.078607223291574,-14.367825221920675,-4.208839973278983,0.40671411667332596,-12.420373197623467,-1.4652032199351648,-3.336567789541968,-11.906342267810677,-24.249522581240544,18.46785946220558,-6.048730704317902,10.812570394699526,11.834695237109422,-0.25863979795901987,-5.188922343775748,5.379947895358408,-13.61182769730596,-0.14005887154707564,-5.641136290949138,-7.020655186541242
33.21752313680438,-61.51491874740833,-5.852897853397231,31.320363279275085,4.247120736413762,-11.029530665526584,-8.626069334979809,8.11094019832513,-12.802833148388189,10.607670880560505,-7.1674358941523435,13.40928932457283,3.913260610752925,3.381895399248856,-14.647591931089321,-3.1800216920467257,0.787191727296026,-19.604074025433714,-1.5609843096764342,3.122251595925256,-4.228653382840555,-0.41448194276706346,9.174159980414387,-17.78585691315811,-1.4253302993396089,0.4550813086484731,-12.5786143703327,-5.479085451726078,0.15738072876068657,-5.938348184423401,-4.913039084026027,16.31871523618066,-15.992153243761974,-4.037241859154999,0.4464638028795811,-14.416787846875645,-1.4857447173022063,-3.2611925282726713,-12.153167334464705,-23.496563188292487,17.597792788363122,-5.917788562288717,10.38613669872421,10.86932001494931,-0.8350341344112285,-5.006968123896897,4.991406078505469,-14.593759932402506,-0.23840140354626363,-5.612397688657094,-5.7260048954692495
32.73991407569476,-60.0189950985519,-6.816282141250036,30.721600057152425,3.963895996951695,-10.900887064048325,-8.469822940632104,7.9531433668508145,-13.204057573762485,10.50945321055952,-6.75902505484981,13.028631641531065,3.8826035851155396,3.2405046642067,-13.75405052557032,-2.8136069627990694,0.9295942624827979,-15.958089143585179,-1.7217874432048426,2.8050228750478268,-2.1987072421365395,-0.4381331527708133,9.118987937031926,-17.46780901341622,-1.2737641543567617,0.6002525541386906,-9.712361135350429,-5.41858341307169,0.14549243517684882,-4.410879986669138,-5.065955337804449,16.421342865975813,-14.298837317071019,-4.0669561279658275,0.41660303122235653,-11.277176577215092,-1.2119445153517439,-3.306115122074053,-10.419765512117623,-23.092015937284952,17.42560665348461,-5.813679463593107,10.266202894199404,11.219384064586706,-1.355637115148232,-4.857032423911229,4.871219962248381,-10.95269592228658,-0.17381387658428815,-5.450042814092936,-4.187995365190908
34.14508117573427,-62.80955078879918,-6.5076156589306855,31.848952073635115,3.308145678358425,-11.906040391976044,-8.490247145681918,8.110060306837628,-15.227633861681824,10.300113270252176,-7.119196262986996,10.406211385427309,3.931123158250145,2.863923661340658,-16.329379550318112,-3.030484553258828,0.7827360595592898,-22.054175947579704,-1.662254537788063,2.9110788525851348,-6.8461459946406675,-0.5851338368008338,9.20696228753181,-19.46260115319099,-1.5628142257351092,0.6253148998005597,-13.683658676256131,-5.52804193338569,0.2544083266304468,-6.9416521836227325,-5.24144269297016,16.73236588480228,-17.37632948996899,-4.160368593289169,0.5761739349396396,-16.496366403821607,-1.4581364501780907,-3.2956561746783346,-13.33212441222087,-24.05805025456719,18.01046203525566,-5.958290601203768,10.598967375631586,11.39937515665612,-1.1875835027483859,-5.018176533737707,5.246833546525891,-14.347453127400001,-0.2402974898364307,-5.456381972483537,-6.009082615289949
