39.691097,-62.88203,-28.807182,29.285055,-4.3980684,-15.770602,-6.263691,6.705,-42.492317,5.648902,-5.491812,-48.439796,4.8309264,1.2525494,-52.02623,-2.562353,0.50598097,-95.8572,-0.6345889,2.1126924,-51.092037,-0.45307845,8.200222,-41.193386,-1.8538407,0.55795693,-6.7763333,-4.820397,-0.1141029,-3.653378,-4.8647428,15.487987,-63.61139,-4.5688157,2.2727835,-101.68433,-4.053727,-1.0980867,-53.397743,-23.09193,18.12904,-5.99926,7.7298527,2.1778145,-63.51382,-6.8222466,7.370269,-94.760895,-1.8717713,-4.1618137,-43.463036
37.999332,-59.99686,-26.389534,28.177876,-3.3248336,-14.948751,-6.1406937,7.113655,-38.560432,6.299519,-5.108982,-42.99245,4.4374704,1.6798666,-47.36805,-2.080171,0.6885547,-86.3102,-0.7290974,2.054511,-47.52966,-0.3513434,7.951514,-41.863808,-1.8052958,0.6745987,-15.66349,-5.119938,0.45356297,-8.670015,-5.5122747,15.4278965,-60.24268,-4.5093627,2.1383202,-95.82401,-3.6572938,-1.3410777,-51.704727,-21.827267,17.284973,-5.4106073,7.8989167,2.3156064,-59.575832,-6.375063,6.374494,-88.44058,-1.7747042,-3.8743963,-42.095684
42.405262,-67.67862,-31.700487,31.593653,-4.1375017,-16.64401,-7.276226,7.4525137,-45.364418,6.6279035,-5.911574,-53.30487,5.5959105,1.6086023,-53.46978,-2.7815874,0.44605526,-98.82429,-0.8956719,2.5234878,-55.606663,-0.46572,8.012215,-46.32648,-2.026581,1.0167365,-18.869545,-5.8313303,0.1883813,-11.621096,-5.240328,16.723186,-69.60813,-4.635789,2.0812647,-110.60829,-4.514278,-1.620147,-59.884914,-24.24892,18.795155,-6.1265903,8.711228,0.95493156,-71.43716,-7.404317,6.931915,-102.86966,-1.6208277,-4.5263715,-49.920666
40.95373,-65.42344,-30.613457,30.769234,-4.779094,-16.125994,-6.9699287,7.162984,-42.737057,6.180941,-6.012236,-50.441814,5.0910363,1.5398989,-56.66746,-2.6844823,0.76301533,-106.685356,-0.6922903,2.433236,-58.847645,-0.33719113,8.702212,-40.84079,-1.4775767,0.60866517,-5.313371,-5.1404977,0.0008427687,-3.9823203,-5.029356,16.765776,-65.866066,-4.836333,1.9164927,-108.0972,-4.29229,-1.2796321,-58.617157,-23.746561,18.12595,-6.138455,8.479602,2.163349,-68.0009,-6.8162947,7.502763,-102.8073,-2.203575,-4.7124624,-48.719498
40.553654,-65.258606,-29.291874,30.388393,-4.089106,-16.316193,-7.118253,7.5377183,-43.43924,6.126758,-5.64704,-51.09219,5.17821,0.85012287,-52.300636,-2.5612211,0.52577734,-99.0634,-0.7153679,2.1955898,-56.812176,-0.9280852,8.030871,-42.689228,-2.1070101,0.87523127,-12.7771845,-5.459375,0.19570358,-8.331921,-5.0770416,16.164482,-65.39995,-4.4603124,2.0513995,-105.5854,-4.070395,-1.4622401,-57.913437,-23.344675,18.304327,-5.693831,8.294663,1.6249595,-67.20819,-7.059076,7.186144,-99.43339,-1.8946713,-4.256457,-46.885323
39.99452,-64.72991,-28.9235,30.076044,-4.8208704,-16.507912,-7.165177,7.022785,-42.66091,5.5893407,-5.545719,-52.801613,5.0996265,-0.077131465,-54.7886,-2.6589198,0.6352311,-105.194885,-0.77497655,2.3541286,-61.69031,-0.64014524,8.409717,-40.058266,-1.5558838,0.8284381,-2.0644267,-5.141514,-0.008477885,-2.6129367,-4.737313,16.441809,-65.10312,-4.429693,2.123829,-106.32812,-4.097829,-1.4851265,-58.689495,-23.452507,17.789549,-5.8233223,7.9992023,1.8094206,-68.77502,-6.9099035,7.88842,-103.5217,-1.8475083,-4.4156165,-48.3353
37.73226,-61.521477,-24.689795,29.250965,-4.3018036,-15.621058,-6.950377,7.159002,-36.480106,5.4299035,-5.5694838,-44.44797,4.345895,1.2063806,-48.68121,-2.0216205,0.8269928,-93.849846,-1.1005704,1.9178312,-54.46296,-0.34402218,8.196072,-37.216232,-1.1015959,0.93404776,-7.9155307,-5.1371274,0.33822197,-7.6855955,-5.091236,16.007454,-58.598755,-4.5893283,1.8671864,-98.204056,-4.2589483,-1.4882098,-55.148857,-22.117756,17.612244,-5.5897965,8.377798,2.1153631,-62.01133,-6.6869345,7.1781454,-97.71119,-1.4476949,-4.13691,-47.21688
40.370224,-62.60719,-29.318542,28.724798,-3.0105996,-13.656825,-5.991079,6.878193,-38.651993,6.048399,-5.564857,-36.65275,4.496579,2.3159056,-44.76934,-1.8142443,1.0642481,-79.069466,-1.1015447,2.0562215,-40.319286,-0.5342634,7.717297,-35.942886,-2.2182503,0.42242265,-17.428802,-5.9070168,0.51207674,-9.6306925,-4.7272243,14.8415165,-56.645874,-4.814744,1.953939,-91.680466,-3.3134584,-2.193325,-47.475414,-23.075293,17.808468,-5.014184,8.789417,3.2948287,-51.989033,-6.288966,6.679714,-79.18353,-1.6474798,-4.5942464,-36.450256
43.050243,-67.29164,-33.629993,31.471514,-4.8215127,-16.397182,-7.499275,7.2116523,-45.911224,6.2566137,-5.478207,-55.143356,5.48039,0.7208485,-61.331585,-2.8345895,0.53153,-116.08857,-0.8718687,2.5699527,-66.77775,-0.3649259,9.197731,-41.16453,-0.9115619,0.76679724,2.4313731,-4.969038,-0.18562868,0.49016708,-4.721588,17.713768,-69.7873,-5.220011,1.9679594,-114.97816,-4.292809,-1.6080632,-62.79748,-24.931528,18.271477,-6.2169595,8.591485,1.9386293,-75.558945,-7.3785534,8.656842,-110.98097,-1.7811781,-5.3228917,-52.09356
40.460785,-63.00335,-31.216328,29.5252,-4.3909535,-15.231504,-6.745445,6.949912,-42.235126,6.221319,-5.1598186,-49.04046,4.9630327,1.4046407,-57.246166,-2.703737,0.8419548,-105.97338,-0.65403897,2.3589838,-58.100822,0.013312112,8.9348755,-39.70853,-1.1422236,0.7106422,-1.5001363,-4.757316,0.030688724,-0.18611483,-4.695371,16.07514,-64.30474,-5.420492,1.8473884,-105.3811,-4.0110226,-1.3113292,-56.034225,-23.30876,17.304548,-5.9629865,8.152155,2.3623514,-66.4871,-6.9207826,7.32668,-98.21331,-2.0136645,-5.0998545,-46.436935
38.38798,-60.960888,-27.975698,28.419891,-4.58828,-14.947333,-6.2037644,6.623041,-41.352776,5.5127587,-5.260578,-49.005917,4.6400013,0.6651127,-54.072643,-2.7267516,0.94715935,-101.26551,-0.7585953,2.3975897,-57.33728,-0.038964543,8.428173,-40.460026,-1.4549714,0.2664375,-3.3095918,-4.4852943,0.12628631,-1.9334068,-4.6607094,15.654645,-62.43109,-5.236756,1.9163054,-101.39121,-4.2015743,-1.160627,-54.965298,-22.31018,16.610865,-5.7627635,7.839905,1.7719737,-63.46617,-6.697075,7.230788,-95.53153,-1.6190308,-4.5974784,-44.68253
39.09279,-61.910755,-27.330778,28.828976,-3.1420963,-14.617912,-6.72996,7.4404345,-40.344692,6.6678486,-5.253383,-46.42632,4.8299565,0.468098,-53.197285,-2.657502,1.1557332,-98.07782,-0.32679677,2.6665502,-55.757412,0.24126448,8.854187,-40.68959,-1.6097196,0.7790072,-6.139557,-4.5931745,0.60202175,-2.7458684,-4.999306,16.082632,-61.196,-4.889958,1.9381989,-97.71367,-3.4242628,-1.3344651,-53.280178,-23.009932,16.89226,-5.5479493,8.0058,0.9862192,-63.370167,-6.5813093,7.026245,-92.04558,-1.6982704,-4.4541774,-44.691517
36.193382,-57.377136,-24.73667,26.620478,-2.3765419,-13.25598,-6.106455,6.6221037,-33.683567,6.120521,-4.9779205,-35.157455,3.6821048,1.4880546,-46.069878,-1.8084674,1.0151863,-86.5257,-0.7321084,1.9457419,-48.56685,-0.39674124,7.58258,-36.22997,-1.8425483,0.46044335,-14.476698,-4.8267694,0.5522313,-8.926228,-4.53921,14.513763,-53.118374,-4.4658265,1.7181985,-87.85375,-3.3636553,-1.2375026,-48.008892,-20.981737,16.083084,-5.0718384,7.677148,2.502156,-50.674057,-6.0839715,6.3579955,-79.0202,-1.4890324,-3.8972044,-38.522835
40.463814,-63.78454,-31.342175,29.561726,-4.069158,-15.147724,-6.749356,7.127846,-44.279278,6.5579624,-5.4362693,-52.70273,5.73405,-0.008029535,-60.035797,-3.3761349,1.0479857,-111.01831,0.13430357,2.390717,-64.7381,0.14040315,8.158096,-44.801517,-1.9012862,0.62742245,-12.261069,-5.3732076,0.35477558,-5.8612075,-4.526014,15.060171,-66.50265,-5.2963114,2.157034,-106.4681,-4.0820665,-1.8437241,-57.449356,-23.987661,16.720106,-5.8652782,8.491121,1.7430124,-64.62854,-7.111207,6.813914,-89.89161,-1.8446358,-4.529356,-43.45807
40.48763,-63.167572,-31.804113,29.05523,-4.246874,-15.272596,-6.4345856,6.9414,-44.11381,6.1194267,-5.5674314,-51.98776,5.43731,0.15126395,-58.728863,-3.005273,0.9014491,-109.47735,0.19474849,2.1632307,-63.400494,-0.18463036,7.8803544,-42.035263,-1.6528714,0.459116,-7.226415,-5.1856656,0.014525954,-3.5188544,-4.43546,15.233561,-65.62686,-4.9247785,2.1165006,-106.0532,-4.0734086,-1.792219,-56.521366,-23.51249,16.64952,-5.4681063,8.277667,2.2250845,-64.22826,-6.760559,7.003142,-91.28365,-1.7504902,-4.33749,-43.20917
36.893585,-60.040012,-26.73226,28.171247,-4.064328,-14.746403,-6.5844436,6.9797783,-38.70482,6.2586527,-5.3329425,-45.370605,4.9800196,0.71635234,-53.246784,-2.6664708,0.86454356,-100.14815,-0.42934275,2.1679533,-58.474617,-0.13132797,8.07544,-43.02384,-1.9656795,0.68410605,-15.449406,-4.509936,0.7880992,-9.184585,-4.4972258,15.080402,-61.238506,-4.8213153,1.924712,-98.295525,-3.963456,-1.2027692,-54.584934,-22.012373,16.500475,-5.844843,8.3425,1.1506468,-60.15999,-6.7584233,6.207037,-88.200485,-1.8184469,-3.9724743,-44.890522
36.430614,-64.87957,-13.669389,31.700682,-2.673391,-16.816395,-8.580722,9.296538,-23.876808,6.2498374,-5.597107,-33.669773,3.5576916,2.3975298,-30.505743,-2.4402719,1.4405245,-76.29832,-0.939305,2.4668028,-52.378246,-0.43110296,8.752421,-30.247467,-0.5752002,0.4562122,-12.964649,-6.7896547,0.0055973157,-15.892287,-5.359386,18.03797,-42.150547,-4.6282907,1.6188728,-83.82846,-2.532138,-1.6990187,-51.280846,-23.70461,18.694574,-6.5805497,9.11795,5.365742,-52.676155,-7.8684964,8.044068,-98.049675,-2.1563768,-5.760563,-52.05333
34.99318,-66.258896,-7.177997,30.38598,-3.5009904,-17.637457,-7.7924876,7.6921396,-22.750278,7.4817944,-5.8815017,-25.433958,2.0406802,2.2856698,-13.795514,-1.4155908,1.7488538,-49.227665,-0.9915132,2.6335196,-37.762245,-0.72898483,8.534351,-21.841787,-2.4124308,-0.16159515,-25.345617,-6.90801,1.9024284,-19.532345,-5.2571344,17.677696,-26.878351,-4.615216,3.1475275,-51.83791,-4.3469105,-1.6633415,-34.9753,-21.76494,18.768633,-6.4501376,9.885246,11.392141,-11.410169,-7.15005,5.465278,-53.606693,-0.9994863,-6.070091,-31.069778
31.693966,-64.159935,-2.516719,31.10743,0.36212814,-13.529191,-8.118781,9.222163,-12.9951,9.284017,-7.8913684,2.0774548,3.5539553,4.371361,-4.9180994,-2.6733763,0.23440793,-19.229074,-0.6617973,2.3826551,-13.7437315,-1.7073282,8.434532,-10.188401,-1.4256201,0.31480408,-11.000783,-5.2011323,1.041566,-9.934978,-5.7335343,16.33378,-10.1242075,-4.4948087,1.0335594,-16.738749,-3.042965,-3.222723,-15.11675,-23.041876,19.111763,-5.9266014,11.158226,13.937677,5.6134143,-6.1556206,3.8417947,-21.693766,-0.841555,-4.8448143,-13.2924
30.014048,-60.112377,-1.1201617,30.44866,1.3065293,-12.999018,-8.987718,7.9548616,-10.027504,10.102572,-6.6618924,10.830163,3.9183607,2.5114405,-4.696242,-2.8514526,1.044197,-9.632681,-1.4039775,2.8449454,-5.02651,-0.40530655,7.9158936,-9.146381,-1.0904921,0.36972973,-5.1989293,-5.6424003,0.16855337,-4.5974545,-5.062738,16.6202,-7.3481283,-3.9077272,0.4031697,-6.6667123,-0.81046593,-3.204754,-7.948392,-23.789917,17.629269,-6.005783,10.935285,14.007062,8.260284,-5.3334126,4.763684,-12.784874,-0.5208701,-5.675613,-9.283828
29.803051,-58.93812,-2.7920725,29.917967,2.3672116,-12.019993,-8.728626,7.6404,-12.183082,9.799061,-6.746664,10.1278105,3.8599892,2.4229083,-7.027821,-2.5785613,1.0043895,-10.309094,-1.7907856,2.5179784,-4.4595466,-0.79213434,7.9176893,-9.684448,-1.2080913,0.25858614,-5.103521,-5.2103314,-0.4949083,-4.119341,-4.672041,15.731759,-9.026948,-4.011546,0.4688006,-6.107929,-1.0897449,-3.5206354,-8.238602,-22.706877,17.089813,-5.6167374,10.139147,13.203382,5.722506,-5.072259,4.3140664,-10.328152,-0.12775017,-5.5647206,-6.1346297
31.36189,-61.062923,-3.6113863,31.40688,2.8898761,-11.363698,-9.303808,8.101451,-9.605922,11.128599,-6.7229753,15.559077,4.0564876,3.48805,-8.053543,-2.8185132,1.1129533,-9.17523,-1.7884955,2.7221642,-1.3617977,-0.6494783,8.262274,-11.399727,-1.1150007,0.44064513,-6.9599357,-5.7301197,-0.14058277,-4.574793,-4.9962955,16.865555,-10.4384165,-4.0109944,0.42994702,-6.19469,-0.9876278,-3.664909,-7.962402,-23.658274,17.75069,-6.045863,10.515929,12.518257,2.2035778,-5.049396,4.7064366,-8.146796,0.21269843,-5.4678845,-5.512845
30.209772,-57.16049,-3.0603087,29.005287,2.729426,-11.220882,-8.122353,7.6845064,-11.800577,10.148819,-6.244599,13.566429,3.766789,2.306866,-7.8748646,-2.807438,0.8847029,-8.555998,-1.579325,3.0025325,-1.7460626,-0.5587073,7.28053,-11.897515,-1.3399522,0.18392588,-5.0765095,-4.9694366,-0.13083242,-3.7741299,-4.574425,15.716453,-10.250149,-3.8213866,0.23482801,-6.354368,-0.89495623,-2.9840167,-8.417266,-22.273508,16.25196,-5.4591384,10.050274,11.5238495,3.7579439,-4.330541,4.820258,-10.905513,-0.45454735,-5.2772593,-5.835792
30.97881,-59.385826,-2.9000537,29.818382,3.2160683,-11.3663645,-8.525623,8.112236,-11.827386,10.576763,-6.3275366,13.802911,3.997757,2.5676541,-8.787279,-2.9508474,0.8897282,-10.238157,-1.8408514,3.0720384,-3.3686912,-0.47810856,7.554676,-12.203519,-1.1340147,0.16109057,-5.610416,-5.102438,-0.35739487,-3.5687678,-4.8536124,15.869056,-10.309179,-3.9368687,0.39511573,-6.17873,-1.1482376,-3.4190414,-8.71195,-22.928135,16.855907,-5.5993514,10.326311,12.030797,3.9121027,-4.833356,4.4406147,-10.3773365,-0.19326228,-5.7566004,-5.2160673
30.286259,-56.79316,-4.9186907,28.755707,3.2004154,-10.70815,-8.104484,7.436921,-14.024261,9.728265,-6.364564,11.77537,3.8427014,2.5503154,-10.031381,-2.9567947,0.8352261,-10.513971,-1.8136964,3.0137193,-1.3015171,-0.55123436,7.848846,-13.098243,-1.2886735,0.10071583,-5.589292,-5.180652,-0.23634161,-3.3418117,-4.5990734,15.697686,-11.6823435,-3.720125,0.20451428,-6.957825,-0.94583696,-2.9671042,-8.566313,-21.899818,16.307716,-5.4259357,9.779096,11.21973,1.158599,-4.4035463,4.707054,-10.287072,-0.4282609,-5.449604,-4.0198026
30.498388,-57.125874,-4.7497573,29.124617,3.6268458,-10.706473,-8.006101,7.4092374,-13.408912,9.970429,-6.3350043,13.2107725,3.692749,2.855667,-10.82546,-2.8425245,0.73532116,-10.55553,-1.8916446,2.8258653,-1.2244648,-0.6316715,7.96332,-13.996948,-1.3253326,0.21770847,-5.8366704,-4.978343,-0.110533565,-3.4479363,-4.707919,15.771557,-12.582589,-3.802327,0.2982511,-6.8121877,-1.205107,-3.3079355,-8.961662,-21.901873,16.329056,-5.3244214,9.931413,10.849317,1.6534446,-4.563395,4.642133,-10.363178,-0.12676337,-5.0848675,-4.185929
30.930761,-58.808144,-4.040305,29.920996,3.396417,-11.188331,-8.438801,7.8674903,-11.938177,10.228419,-6.535481,13.906458,3.8699152,2.990043,-9.23064,-2.7726905,0.9805574,-10.099897,-1.677221,2.929942,-1.0236661,-0.5149813,8.4732895,-12.591667,-1.3221081,0.33404782,-6.1230974,-5.1769495,0.2399494,-3.6266418,-4.900753,16.117188,-11.116639,-3.657586,0.29802936,-6.8323293,-0.90024847,-3.084294,-8.50803,-22.710093,17.02297,-5.645126,10.158741,11.746547,1.9735839,-4.8558793,4.5724597,-11.548127,-0.19970879,-5.4144254,-5.545333
32.120304,-60.45445,-4.803649,30.643042,3.194231,-11.645805,-8.648455,8.016772,-14.088155,10.295722,-6.845012,12.797822,3.922139,2.5142133,-10.378587,-2.7593539,0.8955153,-11.327832,-1.8374635,2.9542222,-1.0948042,-0.6410008,8.798108,-13.497109,-1.5351976,0.279378,-6.3213406,-5.418442,0.10125436,-3.9196355,-4.981497,16.83847,-12.591461,-4.012889,0.35228658,-7.6246033,-1.2297438,-3.116429,-9.660904,-23.171963,17.54145,-5.8482895,10.66289,12.095583,1.2705112,-4.917676,4.9426856,-11.159248,-0.27491274,-5.6984468,-4.806558
31.376728,-58.84762,-4.821308,30.303549,3.1884916,-10.968175,-8.704579,7.8928986,-12.804712,10.273186,-6.690495,12.399581,3.9121687,3.3685856,-8.91835,-3.035075,0.9118223,-11.574756,-1.7065161,3.0417233,-1.3073578,-0.28471604,8.847384,-12.449825,-1.1706553,0.5917916,-6.167786,-5.2719016,0.22244921,-4.293853,-4.939963,16.34023,-10.924978,-3.4467437,0.46326315,-7.155487,-0.80720824,-3.0611143,-9.140809,-22.270876,17.177296,-5.654492,9.849027,11.536579,0.28557765,-4.6394424,4.7787247,-12.286678,-0.52955645,-5.4886575,-5.7751694
33.024094,-61.196415,-7.085069,31.054543,4.144248,-11.101493,-8.61649,7.9194546,-15.947034,10.43158,-6.9823437,13.077285,3.7258003,2.8144548,-13.837932,-2.7104259,0.82298326,-12.576697,-1.9573333,3.1212094,-0.026549432,-0.6734463,9.208724,-16.483395,-1.4700706,0.45552194,-6.881795,-5.5902634,0.08177599,-3.767624,-5.1223493,16.947325,-14.638656,-4.2207203,0.4080819,-8.090032,-1.2181427,-3.263828,-9.61449,-23.508377,17.945068,-5.94837,10.706163,11.069699,-1.5406387,-4.902744,4.7116923,-9.570658,0.11149296,-6.050281,-2.6815343
31.840042,-59.5969,-6.201967,30.504927,3.2652307,-11.239344,-8.57783,8.01621,-13.40604,9.964194,-6.525888,11.030178,4.0898423,3.5682023,-10.881666,-2.7775033,0.6863034,-13.80599,-1.8598976,2.6146488,-1.7838879,-0.80715865,9.499658,-14.206933,-1.1941148,0.6585925,-6.7434516,-5.2182846,-0.015409227,-4.1108503,-5.16624,16.316595,-12.116115,-3.9073951,0.39441884,-7.4994698,-1.0733143,-3.444451,-9.470425,-22.68419,17.35143,-5.6935353,10.331395,10.933241,-1.5973797,-4.616775,5.108717,-8.664147,-0.20975855,-5.3965626,-3.6350245
31.660934,-58.43948,-6.888136,29.646847,4.3889194,-10.578988,-8.040357,7.7315054,-15.894414,9.943864,-6.4383464,11.970229,3.6079283,2.8492668,-13.199957,-2.6937494,0.89825535,-11.686912,-1.7355751,2.6100755,0.24653228,-0.58223134,9.004362,-16.51156,-1.351764,0.3855651,-6.9079895,-5.2624574,0.0061317794,-3.56855,-5.026123,16.182716,-14.324071,-4.097352,0.35514706,-7.470146,-1.1169517,-3.2084112,-9.116604,-22.212442,17.127748,-5.496554,10.017772,10.350571,-1.0210792,-4.727847,4.603208,-10.102084,-0.015725773,-5.673177,-3.1745563
33.693584,-61.159187,-8.226621,30.996443,2.8219664,-11.388206,-8.164029,8.362316,-14.465967,10.513028,-6.995816,9.944016,4.052737,3.5706983,-17.848652,-2.4456544,1.0381972,-20.494465,-1.891545,2.672996,-3.1986396,-0.16635159,8.805791,-20.331558,-1.0482515,0.7438436,-14.597467,-5.658108,-0.02427097,-5.9538593,-4.531592,15.398878,-17.121145,-4.5191984,0.15036404,-15.3067,-1.1431836,-4.052038,-10.564189,-23.215364,17.5327,-5.8210773,10.476037,10.246247,-0.90079397,-4.735836,4.430535,-8.307747,-0.29648048,-5.7902546,-3.5018737
31.974619,-59.66641,-6.4335694,30.325605,4.317088,-10.6290865,-8.350489,7.6454644,-15.692827,10.413792,-6.4465947,13.508276,3.905824,2.883825,-12.773629,-2.9954193,0.9076236,-11.772245,-1.9353211,3.0122552,1.1018882,-0.6999189,9.061031,-16.811586,-1.6589612,0.0640994,-6.3562245,-5.05024,-0.33526918,-2.6663134,-4.7974844,16.555643,-14.553812,-4.2194815,0.3175462,-7.360786,-1.1892357,-3.292623,-9.40589,-22.813204,17.027613,-5.821018,10.030417,10.644397,-0.95631826,-4.7187834,5.003245,-10.591187,-0.17589232,-5.5588183,-3.1005614
31.152647,-57.864433,-5.468867,29.586296,4.2050242,-9.759281,-8.052361,7.6458592,-12.972388,10.705957,-6.331903,15.213182,3.702643,3.562878,-12.04498,-2.990181,0.8770199,-11.804752,-1.9175702,3.049112,-0.4298373,-0.44636297,8.574476,-15.765351,-1.3533773,0.34734836,-7.3837733,-4.924521,0.123569965,-3.5723345,-4.966917,15.772825,-12.839347,-3.9214585,0.17235368,-7.593192,-1.2345095,-3.107273,-9.455855,-22.172533,16.889484,-5.813803,9.900759,9.983695,-0.7978807,-4.832793,4.7385077,-11.248192,-0.1298237,-5.1435537,-4.118778
30.7126,-56.944324,-6.3410873,28.800594,4.1214204,-10.262936,-8.014187,7.439164,-14.782943,9.823378,-6.467423,12.486621,3.7643197,2.8843787,-12.762162,-2.729236,0.76274794,-12.211321,-1.8213854,2.8174598,0.28883803,-0.6562761,8.929963,-16.5243,-1.3225912,0.37496442,-6.1901903,-4.873047,-0.0022919476,-2.6555617,-4.734217,15.782512,-14.356181,-3.8405313,0.42637658,-7.837612,-1.0869056,-3.137139,-9.266295,-21.626684,16.506777,-5.7120166,9.697371,10.491945,-1.104749,-4.8378825,4.7519846,-10.52701,-0.04801355,-5.343196,-3.3862743
33.024353,-60.731396,-8.010423,31.004429,4.098591,-10.635937,-8.289323,8.2368355,-14.019152,10.982846,-6.6974416,14.714289,4.2777944,3.5532303,-14.713708,-2.485326,0.9271419,-14.344366,-1.7316122,2.7960486,-0.43799594,-0.73797196,9.545562,-18.141975,-1.1907066,0.66252524,-9.100135,-5.4293637,-0.331106,-3.6578653,-4.87002,15.9086,-15.900532,-4.4250326,0.48328537,-10.913657,-0.77111244,-3.7062488,-9.819089,-23.29816,17.385054,-5.7914486,10.445634,10.509637,-2.6911647,-4.9606833,5.1231976,-9.962871,0.040752903,-5.2536893,-2.6518817
33.412334,-59.314846,-8.910406,30.269241,3.3622272,-11.674493,-7.8576584,8.216321,-15.575599,10.027616,-6.6113977,8.029322,4.2396793,3.3147485,-14.054563,-2.033488,0.75193834,-17.93669,-1.7501942,2.4700012,-4.18491,-0.6909906,9.352263,-17.99038,-0.88252115,1.2237072,-10.500778,-5.597935,0.17234612,-4.1695457,-4.5703177,15.291563,-15.888519,-3.731167,0.29870987,-13.743364,-0.56293577,-4.376835,-10.154977,-22.795317,16.755651,-5.2635994,9.889005,10.60254,-3.1937716,-4.409721,5.1476088,-9.848151,-0.31386942,-5.2460275,-1.7726994
32.121895,-60.016167,-5.9568186,30.380808,3.0330558,-11.793898,-8.667577,8.10485,-14.363876,10.394283,-6.29957,10.04676,3.8379261,3.0992198,-11.643362,-2.6316786,0.84010196,-13.886426,-1.6675863,2.4232528,-2.0668774,-0.7485966,9.225819,-15.868477,-1.1346148,0.76528054,-7.504895,-5.4842725,-0.21511452,-4.477621,-4.9253078,16.426283,-12.462557,-4.227479,0.37882143,-7.618153,-1.2961158,-3.3522503,-9.244602,-23.09491,17.57215,-5.9012275,10.579895,11.095344,0.11805023,-4.5241766,5.0188713,-7.890189,0.061391808,-5.8989563,-3.9874628
33.424725,-61.4497,-7.461278,31.623283,4.4370565,-11.317017,-8.636152,8.145477,-16.462164,10.283436,-7.0756917,12.14711,4.4020495,3.2551045,-14.188893,-2.7458148,0.9532868,-14.039097,-1.8395084,2.8407426,0.5813482,-0.501775,10.075463,-17.825191,-1.2512846,0.43313333,-7.3964725,-5.1579847,-0.16186687,-3.7855182,-5.216669,17.122011,-15.557255,-3.9814377,0.5617785,-7.5544233,-1.2872074,-3.4305482,-10.43513,-23.24426,17.599497,-5.825782,10.556152,10.639325,-2.2198927,-4.8535776,5.01762,-10.624594,-0.25924414,-5.690137,-3.1840649
33.05848,-60.73593,-7.2991567,30.834335,4.71929,-11.112082,-8.528855,8.050495,-15.159283,10.633246,-6.7744026,14.1242285,3.892363,3.1103497,-14.012846,-2.964827,0.7328525,-11.771279,-1.8264949,2.8806117,1.6167978,-0.7211406,9.61073,-18.328594,-1.439247,0.46943605,-7.368888,-5.5405498,0.054987404,-2.8709838,-5.066215,16.96162,-16.023113,-4.0844817,0.45074582,-8.051082,-0.9967591,-3.2058177,-9.8383665,-23.336128,17.378199,-5.8205466,10.422473,10.501106,-2.098279,-4.951135,5.001095,-11.197695,-0.18614735,-5.5515213,-3.3405485
34.33071,-63.50933,-7.6180315,32.35701,4.6833196,-11.267699,-8.885631,8.123681,-16.131819,10.936951,-7.0945234,14.911782,4.111011,3.3473198,-15.139436,-3.0968106,0.81871814,-13.374022,-1.8084483,3.2404263,1.952279,-0.5659618,10.285778,-19.147089,-1.5198183,0.27332082,-7.8506064,-5.4290876,-0.17129388,-3.2596908,-5.165905,17.765522,-16.793457,-4.2010984,0.4167307,-8.455512,-1.3298289,-3.501014,-10.379089,-24.260925,18.156626,-6.21908,10.831274,10.901431,-2.3196402,-5.0534415,5.3102355,-11.181126,0.029492091,-5.8905015,-3.015937
34.562916,-63.789505,-7.88846,32.768433,4.397179,-11.889045,-8.703257,8.387051,-16.320265,10.534924,-6.9668427,11.558848,4.5859413,3.798693,-14.501376,-2.694532,1.0096089,-16.124239,-1.9496814,2.497824,-1.1810557,-0.70298,10.964087,-18.38611,-1.2491587,0.5140391,-8.269817,-5.4935613,-0.076802894,-4.1574826,-5.5679045,17.29038,-15.21573,-4.509089,0.8133587,-8.929415,-1.4656374,-3.5870156,-10.836469,-24.278776,18.32388,-6.123739,10.938732,11.2827835,-1.9600105,-4.976629,5.4494705,-10.976303,-0.21290693,-5.8154845,-3.609212
34.396908,-63.27822,-6.793153,32.570366,4.3487377,-11.785416,-8.988924,8.262081,-15.44842,10.606618,-6.98701,12.056185,4.1085386,3.4955995,-12.262631,-3.251176,0.8649018,-14.019167,-1.9867097,2.7850173,-0.7833889,-0.39976963,10.221725,-16.297106,-1.4188119,0.6991212,-7.0952578,-5.692581,-0.023992714,-3.6033783,-5.405294,17.46698,-13.708957,-4.301001,0.6818014,-7.5795317,-1.2537204,-3.4752162,-9.9002285,-24.21753,18.340645,-6.1138306,10.593657,11.6103525,-1.2775433,-4.8206944,5.335247,-12.350328,-0.20848298,-6.090924,-4.7931542
33.14637,-60.42658,-7.23241,31.064722,4.494513,-10.616895,-8.303216,7.9182196,-15.752281,10.413366,-6.820448,12.62872,3.783519,3.9303367,-13.515842,-3.0487459,0.7269529,-12.71171,-1.7385039,2.9920273,0.112135015,-0.5507972,9.841072,-16.788582,-1.2085749,0.46663517,-7.830475,-5.564165,-0.0021141432,-4.060857,-5.174666,16.755318,-14.317368,-3.867733,0.33363998,-8.322522,-1.1411144,-3.3271139,-9.616661,-23.22725,17.696634,-5.8634167,10.225772,10.530886,-1.5348003,-4.9232807,4.998656,-12.146047,-0.26134783,-5.60653,-4.164976
32.935318,-60.714294,-7.0508924,30.899517,4.3542013,-10.892054,-8.67684,8.004715,-15.733975,10.649448,-6.9544992,13.376884,3.9641807,3.124184,-13.81725,-2.8452535,0.8778766,-12.593652,-1.8861595,2.9920335,0.35680228,-0.659127,9.5281515,-16.973114,-1.2907921,0.32178032,-7.654784,-5.3245764,-0.120613426,-3.6616056,-5.022579,16.859022,-15.217405,-3.9468527,0.27672803,-8.289337,-1.1444142,-3.3161275,-10.146087,-23.384945,17.571463,-5.935974,10.476591,10.892947,-1.7251719,-4.9927316,4.988423,-10.44792,-0.24453941,-5.7484255,-3.18822
33.523132,-61.112846,-7.9839907,31.216143,4.4097185,-11.629754,-8.29398,7.8748593,-17.695902,10.116656,-6.828102,12.4523325,3.8976138,3.0342515,-15.668637,-2.6130817,0.8851586,-13.253151,-1.8160841,2.81307,0.9133097,-0.59320843,9.786991,-19.317324,-1.58969,0.5597157,-7.8193073,-5.5243907,0.16642602,-4.0536356,-5.3891587,17.354242,-16.544775,-4.315694,0.4534605,-8.809245,-1.3901966,-3.2822082,-10.333373,-23.428598,17.711803,-5.842825,10.781182,10.745796,-0.77146024,-4.805641,4.9701595,-10.866118,0.1614138,-5.530895,-3.258113
32.86557,-59.915894,-6.7517934,30.678562,3.7783208,-11.546655,-8.584922,7.9271054,-15.891371,9.789008,-7.0783095,9.865455,3.816601,3.176301,-13.114911,-2.8705304,0.9181108,-14.257828,-1.7924547,2.5994027,-1.1868368,-0.39937386,9.753086,-16.290228,-1.0873837,0.62912625,-7.471164,-5.2086115,0.05171873,-4.360549,-5.0047855,16.606905,-13.8343725,-3.9023888,0.50265753,-8.142987,-1.3482102,-3.2812219,-10.098848,-22.599178,17.660246,-5.801479,10.057102,11.246598,-0.4733897,-4.6774073,5.170921,-11.348021,-0.35907996,-5.7920365,-4.7665067
33.523922,-60.619324,-7.6978765,31.201336,4.213607,-11.506034,-8.498028,8.101128,-17.411186,10.046241,-6.8761215,9.980188,3.892992,3.153182,-13.705657,-3.1341648,0.80821264,-13.763994,-1.6830249,2.8569586,-0.28933933,-0.39048398,9.673891,-17.408447,-1.1106945,0.51816446,-8.025345,-5.659512,-0.0017310046,-4.367333,-5.2016907,17.106672,-14.213755,-3.9382432,0.3564803,-8.222815,-1.1038986,-3.1570833,-9.772786,-23.045311,17.803297,-5.670584,10.107147,10.78166,-0.92115194,-4.736208,5.11252,-11.921408,-0.37112376,-5.83963,-4.294212
33.720963,-61.56035,-8.460655,31.29312,3.9384305,-11.730148,-8.52291,7.7744646,-17.110424,10.300231,-6.9134226,11.956325,3.9708276,3.4735796,-16.294704,-2.7684448,0.7901816,-15.095279,-1.6026087,2.7007544,0.37252477,-0.32872152,10.230504,-20.070042,-1.3596249,0.6681658,-8.95538,-5.6316257,0.08159821,-4.530594,-5.4152594,17.452604,-17.076473,-4.231277,0.62857735,-9.755253,-1.678203,-3.2358487,-10.820652,-23.314505,17.821974,-5.958366,10.623262,10.523151,-1.3038948,-4.7844605,5.1285167,-11.504752,0.40057147,-5.6071906,-3.7348979
35.10469,-63.491493,-8.373994,32.67196,4.9176655,-11.746766,-8.582172,8.309517,-18.219866,10.719841,-7.0680876,12.108048,4.0327215,3.3873725,-15.362105,-2.9711766,0.9440434,-13.852123,-1.9708089,2.8732438,0.7489029,-0.53356296,10.168495,-19.578201,-1.3889233,0.5547775,-8.347383,-5.7995796,0.16589665,-4.4403005,-5.398967,17.867842,-16.359083,-4.240387,0.49577272,-8.908274,-1.2427424,-3.4196181,-10.704379,-24.196766,18.598635,-6.015471,10.873469,10.902692,-1.4085857,-5.0509257,5.317308,-12.369724,-0.15989907,-5.844735,-4.224552
33.187416,-60.885967,-8.22366,30.723106,4.2288485,-11.674202,-8.217018,7.5057507,-17.368258,9.934585,-6.8416567,12.08172,3.8307207,3.2942412,-16.754358,-2.7263737,0.9537348,-14.539983,-1.746944,2.6815405,1.1114844,-0.25306782,10.225697,-20.695717,-1.4650326,0.5427757,-8.281274,-5.6822753,0.06981689,-3.7570338,-5.368654,17.24895,-17.58971,-4.2653346,0.64004594,-9.458506,-1.581178,-3.2226045,-10.632663,-22.887953,17.468918,-5.8832874,10.501258,10.242333,-1.29703,-4.775829,4.885278,-11.652862,0.39956665,-5.573784,-3.2561824
34.381287,-62.507545,-7.9094872,31.84076,4.6394367,-11.597547,-8.343048,8.048132,-17.654854,10.4648905,-6.9273143,12.441126,3.904473,3.224144,-15.463257,-2.9226904,0.9840991,-14.046904,-1.9954228,2.8042824,0.14515023,-0.52806026,9.993166,-19.279362,-1.4447896,0.551635,-8.557669,-5.7606325,0.2172606,-4.376814,-5.6374154,17.4403,-16.035065,-4.3091183,0.4698037,-9.394463,-1.4942325,-3.207,-10.567356,-23.863394,18.250242,-6.040475,10.614326,10.855994,-0.73696524,-5.1596913,5.217128,-12.327895,0.038728826,-5.8057623,-3.9763386
33.307625,-61.311546,-8.392844,31.070778,4.2795615,-11.730636,-8.188277,7.819928,-17.29261,10.319814,-6.829993,12.86356,3.9853823,3.2716422,-16.652311,-2.7061903,0.82273483,-14.048681,-1.7605402,2.735772,0.98581004,-0.41825455,10.08196,-21.04738,-1.455659,0.7136308,-8.461936,-5.6597013,0.09357369,-3.8856943,-5.2991724,17.210213,-17.680796,-4.415667,0.57621557,-9.402954,-1.3596028,-3.300642,-10.623023,-23.102995,17.782135,-5.751175,10.735611,10.097859,-1.1999394,-4.76655,5.034418,-11.477822,0.30002052,-5.405651,-3.4652007
32.591496,-59.897747,-7.150833,30.533295,4.1601477,-11.049652,-7.967624,7.913041,-15.412027,10.319161,-6.606672,11.73723,4.075488,3.3897548,-15.266,-2.547438,0.9272237,-14.68516,-1.8476903,2.8291235,-0.27799833,-0.439525,10.07255,-19.585548,-0.9969648,0.5684405,-8.895552,-5.3762736,-0.02293494,-4.158871,-5.1627216,16.241718,-15.339037,-4.1480265,0.565307,-8.69667,-1.3492986,-3.4075587,-10.505038,-22.81119,17.19493,-5.9972095,10.436916,10.076084,-0.9917132,-4.7675114,5.161602,-10.49719,-0.24262503,-5.603336,-3.8084192
32.75795,-60.271126,-7.8385653,30.58888,4.115946,-11.355915,-8.074565,7.2382574,-16.398329,9.922672,-6.839687,12.810397,3.8151283,2.9854233,-16.95682,-2.5447826,0.7537377,-14.462333,-1.6112523,2.7830606,0.78877896,-0.43650496,9.527951,-20.178854,-1.5501386,0.63129187,-7.732905,-5.4958386,-0.00016386062,-3.3539507,-5.19236,16.831654,-17.188637,-4.4225097,0.5662148,-9.48273,-1.5781429,-3.405356,-10.049046,-22.93234,17.360867,-5.967602,10.510941,10.28156,-0.92634684,-4.6787243,4.7984757,-11.186195,0.6536391,-5.5365667,-3.0539403
34.104317,-63.37169,-8.346196,32.454983,4.624249,-11.986309,-8.650978,7.74957,-16.734827,10.925849,-7.1955867,15.089893,4.119378,3.6195633,-18.661768,-2.6998692,0.75523883,-15.01068,-1.5636375,2.9686148,1.4319532,-0.18216485,10.587581,-22.633808,-1.40295,0.72517806,-9.640181,-5.987823,0.22704141,-3.856697,-5.1765447,17.574219,-18.891356,-4.148036,0.5609479,-9.559571,-1.4122473,-3.2960446,-11.101858,-24.175993,18.337194,-5.643945,11.349601,9.636422,-1.8414352,-4.7249,5.0863996,-12.253123,0.32135573,-5.4644055,-3.26079
33.399494,-61.821457,-7.8411083,31.619112,4.7327733,-10.829228,-8.419605,7.5043674,-15.806847,10.804881,-6.8963337,15.033715,4.054877,3.5445857,-17.704597,-2.645059,0.9883346,-14.925948,-1.8160148,2.934122,0.6051988,-0.24037345,10.143754,-20.814983,-1.3407608,0.6761317,-9.55702,-5.6956396,0.15985435,-4.1164255,-5.242302,16.665958,-17.360893,-4.1888533,0.45241898,-9.837602,-1.4493033,-3.3447027,-10.841318,-23.612608,18.090464,-5.79338,10.8632345,9.483717,-2.0695045,-4.8835106,5.0975423,-12.590845,0.24171472,-5.443991,-3.7070956
34.055435,-60.68355,-8.869403,31.451124,6.615334,-9.965781,-8.304068,7.9883604,-14.04786,10.286481,-8.42772,12.151862,4.7290916,3.7704973,-25.612267,-2.7248282,0.94884247,-32.01008,-1.0639138,2.7043517,-9.484075,-0.48954523,10.038291,-29.666225,-1.8701968,1.0478826,-27.033798,-5.8587523,0.33372125,-11.993195,-4.6670647,14.956715,-24.626518,-4.414381,0.35019606,-24.35739,-1.1881986,-2.8015757,-17.830837,-22.896692,17.847948,-6.1350856,9.909946,9.139626,-8.1370535,-5.644028,5.7852,-20.112938,-1.282504,-5.055122,-10.099609
32.78563,-59.988174,-7.3922243,30.966648,4.906127,-11.328701,-7.8341465,8.09665,-15.357605,8.697133,-7.5265894,2.1322494,4.231036,3.5161202,-14.907555,-2.2296112,0.4830322,-24.548716,-1.0024538,1.7358828,-12.263847,-1.3641653,8.814815,-22.927795,-1.639558,1.489798,-24.249254,-5.6776104,1.1281979,-15.873959,-4.8060384,14.548929,-18.200418,-4.5574894,0.63627476,-21.5867,-2.0735211,-2.8977916,-18.527494,-22.515818,18.188314,-6.0676994,9.86968,9.213646,-6.4172325,-5.431556,5.5480537,-22.00485,-0.6494831,-4.9770617,-13.414584
33.79462,-62.711895,-8.316187,31.636013,4.439868,-11.801013,-8.447701,7.9842057,-16.42627,10.941412,-7.0577903,14.119074,4.105136,3.5723605,-18.181885,-2.5652144,0.93796736,-15.492983,-1.5602076,2.727476,0.69207287,-0.16876233,10.307781,-22.907719,-1.1245306,0.73245823,-10.00975,-5.648106,0.23301275,-4.7113767,-5.358088,17.379076,-18.337177,-4.338398,0.56831896,-10.108251,-1.6000507,-3.3382204,-11.209352,-23.321898,18.29528,-5.9581656,10.899933,9.799542,-0.6701193,-5.034979,4.9300704,-12.069077,0.606428,-5.603381,-4.1825776
34.406902,-63.00631,-6.507262,32.230297,3.7904978,-11.776995,-8.251908,7.722242,-14.465493,10.457512,-7.6380653,10.162768,3.906263,4.066288,-14.758139,-2.953517,0.6672238,-17.246593,-2.1823664,2.2687101,-3.809041,-0.7065307,9.485442,-18.087107,-1.3050188,0.75632703,-10.843131,-5.860352,0.30050308,-7.159268,-5.723896,16.376432,-14.100464,-4.5646167,0.2096806,-10.701778,-2.1184306,-3.8980932,-11.555661,-23.786482,18.56078,-6.2464056,11.269938,10.56635,0.8428495,-5.496956,5.4614367,-13.231739,-0.0063495114,-5.851683,-7.797635
33.878242,-61.3434,-8.381716,31.356514,4.1387234,-11.907449,-8.08945,8.176575,-15.7891865,10.5362015,-6.8896484,8.528423,4.3018785,3.2407212,-16.25223,-2.2557101,0.99752516,-19.05874,-1.8173568,2.4101744,-3.3539393,-0.51718605,9.452801,-20.181551,-0.7299662,0.7705996,-10.933896,-5.784697,0.0813251,-4.435452,-4.707023,15.700356,-16.804813,-4.486088,0.5613173,-12.757357,-1.080895,-4.3002872,-10.576747,-23.143288,17.518198,-5.627807,10.247924,11.368249,-0.6529212,-4.8693433,4.680014,-10.811799,-0.42590714,-5.609038,-3.4696426
35.767006,-64.55768,-7.606573,33.106316,4.729025,-11.817727,-8.98594,8.428835,-16.07539,11.2455435,-7.3688974,13.732313,4.0957923,3.88381,-15.12587,-3.209418,1.1332253,-15.1971855,-1.9261938,2.9837518,-1.0147951,-0.21203572,10.426977,-19.14362,-1.2231221,0.8758252,-9.284476,-5.7250857,0.46763173,-5.007241,-5.991719,17.971046,-15.332173,-4.1860805,0.56687766,-9.52795,-1.5520636,-3.2602968,-11.163614,-24.596703,18.883663,-6.3446217,10.810893,11.038766,-1.0954006,-5.3219438,5.432444,-13.570545,-0.13545646,-5.9662023,-5.4788246
33.94501,-61.70642,-7.4993095,31.58787,4.799926,-11.13732,-8.381653,8.235242,-16.276539,10.593955,-6.941375,12.282247,4.057601,3.6812863,-14.891824,-2.9087174,0.9449825,-14.711009,-1.9775845,2.775607,-0.22669053,-0.6272707,10.238807,-18.868694,-1.1607307,0.5775448,-8.52002,-5.4601145,0.18036239,-3.8796654,-5.460601,16.860693,-15.326767,-4.1758885,0.6000277,-9.072393,-1.4153607,-3.3753471,-10.50554,-23.439726,17.986336,-6.1984453,10.361593,10.814659,-1.3386934,-5.216047,5.2251153,-12.889824,-0.27664545,-5.512753,-4.450126
33.999733,-61.91039,-6.3760786,31.838396,4.517879,-11.460721,-8.6326885,7.9409375,-14.122171,10.49935,-7.038767,12.471409,3.8560543,3.8420444,-13.202838,-3.2694325,1.0725387,-14.719479,-2.1610186,2.7067318,-1.361742,-0.04786434,10.297629,-17.314466,-1.0268809,0.81714773,-8.759464,-5.490594,0.3448857,-4.7420597,-5.5601606,17.37923,-13.598022,-3.8575335,0.6310232,-8.430781,-1.3935257,-3.3680477,-10.508676,-23.49723,18.062216,-6.220576,10.182818,11.2036915,0.1016369,-4.9878154,5.4379187,-13.358837,-0.19101593,-5.7953568,-6.2085476
32.70054,-60.954662,-7.0799923,31.029219,5.001134,-10.911147,-8.235839,7.80933,-15.605587,10.750677,-6.7636333,15.224357,3.9903648,3.3850145,-15.827108,-2.6549504,0.89206725,-13.235713,-1.714213,2.9028738,1.2116528,-0.54969823,9.690915,-19.958698,-1.3258957,0.4246905,-8.048944,-5.1229215,0.2994755,-2.9116864,-4.9025745,16.812428,-16.882366,-4.0182014,0.46918994,-8.775618,-1.3106089,-3.455669,-10.108621,-23.154457,17.73681,-6.0015955,10.554311,10.315185,-1.1122822,-5.347147,4.6079035,-11.890592,0.15201932,-5.405044,-3.0408757
33.80655,-61.99892,-8.039529,31.949741,5.097794,-11.031682,-8.168385,7.9606423,-16.94713,11.079468,-6.8116274,14.347097,4.180705,3.8567579,-16.01816,-2.6743279,0.9617199,-13.553955,-1.8175832,3.0967379,1.0242616,-0.3484844,10.058582,-20.178833,-1.2711483,0.66225475,-8.4719515,-5.510761,0.2729559,-3.7112422,-5.079389,17.061932,-16.923796,-3.969425,0.5402664,-8.999026,-1.2800514,-3.549162,-10.642785,-23.775564,18.1373,-6.0786963,10.959741,10.019102,-1.803792,-5.319763,4.94179,-12.541705,-0.07301271,-5.1883216,-3.8284776
33.961056,-62.568897,-7.406337,31.633257,4.829827,-10.949247,-8.858535,8.077753,-15.751516,11.107702,-7.1930904,15.254275,3.9735928,3.578225,-15.883262,-3.0647585,1.0523401,-14.167649,-1.885414,3.100193,0.7384241,-0.34968087,10.22397,-19.953697,-1.2861046,0.46815208,-8.902572,-5.4350886,0.27228624,-3.6434596,-5.3578887,17.458895,-16.637682,-3.9273005,0.3443197,-9.51861,-1.2648319,-3.2336009,-10.7542,-23.778566,18.222885,-6.1595945,10.671815,10.641026,-2.0052638,-5.3328404,5.1725125,-12.465715,-0.016080137,-5.5684924,-3.8730328
32.52852,-58.757854,-8.412076,30.28052,4.697758,-11.365593,-7.906461,7.796563,-15.642259,10.499486,-6.5730705,9.93236,4.371291,3.2849133,-15.467658,-2.1982915,0.7254325,-16.526892,-1.6022748,2.222049,-1.7183181,-0.5526776,9.843755,-19.11274,-1.133298,0.84725004,-9.0955305,-5.6403003,0.012034204,-4.068326,-5.007398,15.748036,-15.687348,-4.3156576,0.4510184,-9.476112,-0.97673243,-3.5400598,-10.614879,-22.67602,16.82309,-5.2104425,10.298902,9.972007,-2.4662952,-4.015331,4.917172,-10.293337,-0.44872057,-5.2773504,-3.3304956
33.76321,-60.39585,-9.441823,30.997606,4.096691,-11.737485,-8.024823,7.889716,-17.655396,10.429769,-6.931226,7.6816993,4.417783,3.800518,-17.812223,-2.7672508,0.8205548,-19.242342,-2.0721262,2.2151308,-2.18115,-0.42593953,10.188709,-20.649427,-1.0496587,0.79744756,-11.482021,-5.8019247,-0.085823044,-5.155332,-4.8202295,16.171532,-17.206005,-4.4003234,0.35563147,-12.014909,-1.179353,-3.8808217,-11.18356,-23.023808,17.340765,-5.6181216,10.54361,9.954207,-1.9954106,-4.3540196,5.1342897,-10.274952,-0.56460196,-5.5563197,-3.9816892
33.751694,-61.68939,-7.4820685,31.642475,5.5946674,-10.569824,-8.588146,8.1949415,-15.008292,11.416411,-6.731378,15.237207,3.8402457,3.9889262,-14.06557,-3.4034255,0.91238517,-11.587012,-1.9827536,3.058083,2.0366104,-0.20565178,9.976065,-19.389343,-0.94540983,0.51853484,-9.358003,-5.7846746,0.2220954,-3.8279269,-4.885586,17.157055,-16.05409,-3.26141,0.3261646,-8.387348,-0.93361855,-3.1349854,-10.064777,-23.8694,18.112858,-5.7394686,10.424711,9.89481,-2.4070551,-5.136362,5.249679,-14.463179,-0.29074934,-5.397461,-5.213909
34.479366,-63.64793,-11.501244,32.453377,3.6757922,-11.81706,-8.11521,8.064293,-16.137928,10.610377,-7.7332735,15.045975,4.152701,3.338633,-21.776033,-3.491913,1.077018,-16.495462,-1.7614753,3.4335535,1.5626724,0.33660525,9.89058,-25.423801,-1.1834428,0.6193294,-14.35783,-6.0214057,-0.526816,-5.2662644,-4.568137,17.222698,-22.779064,-4.901708,0.57395935,-15.354824,-1.44842,-3.5751138,-11.675645,-24.20787,18.02081,-5.566449,11.035682,9.246033,-4.1068077,-4.262727,5.1229653,-12.108268,0.78956544,-5.214556,-2.7010524
35.44459,-60.087524,-15.520593,30.632998,2.4644141,-11.260018,-7.2589498,7.875436,-20.364569,8.281245,-7.501068,-2.2798028,5.4412675,3.983378,-37.725887,-2.2899675,0.71587324,-54.739506,-1.0018584,2.5922394,-23.420307,-0.59621966,10.172145,-40.870052,-2.054859,1.6726215,-44.683895,-5.3768363,-0.1533773,-21.198458,-4.0943522,13.773608,-36.742577,-4.659964,0.6134026,-44.04081,-1.4575386,-3.229983,-25.415592,-23.22542,17.744835,-6.0779505,10.373368,7.5972395,-8.418786,-4.462632,5.4466143,-12.996577,-0.43296728,-4.4706607,-8.202118
35.12813,-63.776318,-8.8832245,32.74757,4.914386,-11.899819,-8.658633,7.830338,-18.691607,10.511085,-7.1377745,12.085578,4.1120286,3.4038558,-16.845045,-3.1237748,1.0529933,-15.065722,-2.0432267,2.74283,1.3011853,-0.3621232,10.6320915,-20.483044,-1.4689921,0.5897938,-8.659108,-5.9696765,-0.010823879,-4.4172316,-5.340106,17.654299,-17.49265,-4.2616377,0.42064047,-9.439451,-1.3718909,-3.4890585,-11.132909,-24.303377,18.506481,-5.882258,10.927834,10.563112,-2.312885,-4.902681,5.3318667,-12.715112,-0.0050795972,-5.750286,-3.6804328
34.01692,-61.94508,-8.595207,31.888636,4.796283,-11.411959,-8.446265,7.638355,-17.338747,10.443016,-6.9683723,13.0085125,4.059962,3.7320504,-17.234701,-3.0160124,1.0904982,-15.569328,-1.7732965,2.8333528,1.2851956,-0.047220044,10.859709,-21.635443,-1.2913963,0.80537003,-8.991795,-5.6105075,0.15447377,-4.211821,-5.338472,17.291515,-17.61427,-4.075428,0.6316442,-9.415071,-1.320755,-3.3313465,-11.167924,-23.51541,17.97611,-5.881272,10.840507,9.737733,-2.7375128,-4.7603474,5.3010073,-12.715641,-0.016035516,-5.4274173,-3.8633478
34.17264,-61.57176,-7.7251577,31.88101,5.151994,-11.084432,-8.51544,7.8076816,-15.322654,10.817143,-6.741912,12.97232,4.119406,3.6117918,-14.544092,-3.0430803,1.1776837,-14.577649,-2.0409153,2.5981066,-0.73910505,-0.14686984,10.179062,-18.520771,-1.1289526,0.9303646,-9.116907,-5.744454,0.28390735,-4.712879,-5.6197844,16.535131,-14.892662,-3.8690743,0.67195815,-8.699301,-1.3299896,-3.2279925,-10.811743,-23.700361,17.862177,-5.61729,10.467049,9.867526,-2.0487242,-4.870754,5.2849717,-13.4671335,-0.17899977,-5.3890953,-5.247768
33.397213,-59.946674,-7.099919,31.103981,4.435996,-11.202708,-8.439792,7.7188025,-15.438314,10.268902,-6.885122,11.362856,3.7736585,3.3748457,-13.408033,-3.2749119,0.9439578,-14.960858,-2.0207124,2.5281854,-0.9084819,-0.27177617,9.961981,-17.36137,-1.0971186,0.77108884,-8.53123,-5.3872924,0.1783746,-5.460721,-5.294166,16.800024,-14.040199,-3.7436876,0.4804954,-8.500629,-1.4772248,-3.0910168,-11.107183,-22.719297,17.539455,-5.684584,10.027221,10.252419,-1.1971576,-4.7480054,5.302648,-13.348067,-0.19872512,-5.576827,-5.7129006
34.428112,-61.779232,-7.828537,31.748447,4.938556,-10.983706,-8.475139,8.34793,-15.528305,10.989549,-6.9059668,13.547551,3.7764623,3.9090426,-14.543789,-3.069954,1.0409429,-13.3216505,-1.7564228,2.6849759,0.37122726,-0.40499046,10.164488,-18.585531,-1.1767465,0.777448,-9.013551,-5.6975064,0.36400312,-4.8285723,-5.4910393,17.149998,-15.155786,-4.016233,0.4725337,-9.011195,-1.1942928,-3.1108387,-10.30714,-23.791037,18.2859,-5.9713936,10.616798,10.527895,-2.337697,-4.9772277,5.2947154,-12.429152,-0.20179377,-5.5911903,-4.707387
34.92715,-63.20108,-8.500414,32.295673,4.5040975,-11.878833,-8.73478,7.929105,-16.928251,10.78996,-7.044473,13.792743,4.1786504,3.477315,-16.45119,-2.888155,1.0778829,-14.53626,-1.7116326,2.9122922,0.8890746,-0.18311056,10.346507,-20.13683,-1.4038306,0.67890495,-8.46791,-5.803541,0.2432307,-4.452439,-5.564955,17.933386,-17.491747,-4.379168,0.7642422,-9.426352,-1.6126734,-3.33593,-11.246231,-24.110273,18.212833,-5.999194,11.218684,10.48242,-2.8563914,-4.865606,5.156969,-11.639803,0.19193672,-5.621429,-3.4861612
33.272057,-60.26359,-7.590201,30.881477,4.0105944,-11.484694,-8.262353,8.038428,-15.579024,10.372779,-6.559152,9.591059,4.0185175,3.097853,-13.799921,-2.3878763,0.8799143,-15.668346,-1.6737268,2.3245585,-1.9215091,-0.6483143,10.34416,-17.62608,-1.099898,1.0196242,-8.27319,-5.5839624,0.12666695,-4.72938,-5.2562914,16.18954,-13.957202,-4.0982356,0.74610114,-8.526951,-1.2655722,-3.3838263,-10.340932,-23.32871,17.589027,-5.886537,10.59671,10.435713,-1.8261235,-4.744483,5.2174063,-10.262326,-0.15560743,-5.8323507,-4.3960056
39.03408,-70.19742,-20.68301,33.697594,2.6389158,-13.23865,-9.7604065,8.999205,-16.373308,11.300903,-8.695104,1.2068362,5.1636643,7.879458,-35.822636,-3.0010862,0.84537506,-62.177677,-1.1076329,4.827269,-27.56502,-0.16472404,14.628745,-63.82278,-0.13688725,-0.40372092,-113.58976,-9.8657255,1.5239224,-56.220715,-3.4029944,16.815954,-71.65231,-5.0384974,2.2662122,-116.9521,-2.8741663,-2.7071004,-58.112667,-26.517313,19.604456,-6.688957,9.45982,5.48882,-71.5786,-10.029558,8.682007,-112.02242,-2.0160885,-5.0281177,-52.52655
33.637623,-64.03248,-5.9795036,32.282024,8.440049,-9.422527,-10.118862,8.996908,-2.4394486,10.676198,-8.297621,11.935098,5.2412977,5.2103915,-60.573036,-3.032082,1.6637263,-109.52868,-1.0191917,1.9481643,-64.46818,-0.2718121,13.54636,-65.04094,-1.5352083,0.45834005,-113.85127,-9.641391,2.8528082,-62.26783,-5.455194,16.73363,-66.81597,-6.1347747,2.16533,-113.95231,-5.022501,-1.551832,-65.7885,-23.809278,18.598082,-6.6645913,8.636392,6.004643,-59.904892,-6.981145,8.23734,-105.457245,-2.7524,-5.62908,-56.567234
33.764725,-62.577744,-9.496909,31.86844,11.317201,-7.1871014,-8.842867,9.424442,-7.7603226,9.792158,-7.6067476,2.2718828,5.19678,5.552436,-55.20039,-2.953935,0.6940088,-100.34387,-0.7770936,3.037439,-64.17281,-0.8096699,13.552913,-63.987087,-1.2939391,0.7261636,-113.71102,-9.69651,3.0622811,-63.731323,-4.728478,15.310897,-66.44252,-4.648722,2.9884756,-111.35261,-3.8620007,-1.3881687,-64.53308,-24.655102,17.634724,-5.113105,9.3586,3.9618888,-56.533627,-7.1302686,7.0834684,-99.1044,-2.6569123,-4.6714597,-55.5686
34.89043,-68.67782,-4.749485,35.160606,17.29151,-5.5767365,-11.123319,8.801608,2.3945155,11.269237,-6.755775,12.20208,6.591683,5.5620103,-70.665375,-3.5347905,0.96962637,-124.08261,-1.0115585,2.4295151,-81.87364,-0.15014619,12.158116,-73.66334,-2.4071417,0.36595827,-124.09944,-11.018484,4.15002,-74.8742,-4.578747,17.486572,-78.42052,-5.101376,2.9622123,-125.20591,-4.660969,-0.90171784,-75.7825,-25.957516,20.071573,-6.9364552,9.090979,1.4052335,-72.5116,-8.022342,9.777461,-126.83216,-2.6762178,-5.9455037,-72.22403
31.47431,-61.54456,-6.9503345,31.88226,14.950899,-5.4821515,-8.434955,8.596985,-1.608948,9.918153,-7.1852365,3.7640977,5.298501,3.9659057,-60.969448,-2.7436466,0.6363021,-104.870285,-0.055353597,2.7889683,-71.58949,-0.29099593,10.601595,-65.903496,-1.5246804,-0.068335734,-111.536804,-9.868852,3.166516,-66.668434,-3.6942966,14.348052,-69.34166,-4.738696,2.7506938,-110.14117,-4.0726333,-0.7430637,-66.2124,-24.05102,17.705544,-5.7292933,8.339144,1.1413156,-61.61596,-6.8866177,7.534453,-105.18172,-2.02963,-3.9962702,-62.44339
32.73711,-62.94394,-8.370759,32.58947,13.437336,-6.539668,-8.909727,7.889452,-4.6967816,9.415686,-7.312458,2.0791452,5.586816,3.5386474,-54.543583,-2.8915014,0.48244855,-93.288185,-0.13307896,2.822194,-62.787422,-0.37408072,10.693002,-67.693115,-1.5298109,0.28886655,-113.091064,-9.404777,3.3770063,-67.883095,-4.127431,14.754391,-72.52676,-4.579133,2.3213155,-111.89856,-4.566234,-0.8553257,-66.801895,-24.612642,17.810675,-5.854141,7.988643,-0.03931362,-68.90936,-7.3896265,8.092952,-113.45071,-2.361146,-4.0296607,-65.47153
29.001427,-55.317986,-4.674923,28.641476,12.282995,-6.0750685,-9.17411,7.4151807,-1.2443523,9.198864,-5.6175504,5.6148057,4.5314374,3.6266015,-53.32389,-2.730518,0.8136426,-95.27579,-0.79347473,1.7964157,-64.12995,-0.34226546,8.888809,-57.50734,-1.3275384,0.81167674,-95.317314,-8.965573,2.9908147,-59.355072,-4.4875116,14.017403,-59.41367,-4.609881,1.898399,-98.327,-4.0622907,-0.5544278,-61.264023,-21.5818,15.913205,-5.17281,7.643905,1.9058152,-54.660725,-6.032843,6.915151,-98.27226,-1.8299148,-3.8758461,-58.719193
34.61035,-64.8946,-13.192558,33.707302,10.697189,-8.3840065,-8.607349,7.7605677,-11.481227,9.005471,-8.395261,-7.565502,5.195636,4.6136928,-53.118465,-3.3333802,0.64736927,-86.45505,-0.53227377,2.6272976,-55.84809,-0.7443067,12.256807,-74.20385,-1.6992307,0.33032346,-121.978615,-9.721957,3.6666594,-69.56785,-4.711576,14.790207,-79.10848,-4.7418647,2.8005524,-117.58555,-5.011615,-0.66700476,-67.216995,-25.013172,17.950272,-5.868218,7.664111,-0.31495416,-72.92517,-8.028357,7.9158463,-112.52892,-2.5118787,-4.21546,-63.793297
30.524145,-58.85937,-7.560588,30.501831,11.811711,-6.3487353,-8.126106,7.384202,-7.1602187,8.142879,-6.737916,-5.4820876,5.008006,2.736554,-51.534927,-2.8761854,0.5416923,-88.00646,-0.329158,2.518088,-62.37921,-0.8260274,9.40449,-63.871773,-1.4319836,0.54615617,-104.87211,-8.784638,3.318696,-66.38947,-4.169204,13.2939825,-68.75329,-4.79,2.24164,-106.65708,-4.964485,-0.46514437,-66.68968,-22.648052,16.57768,-5.6567483,7.2867837,-0.4676333,-66.37559,-6.7503886,7.3749657,-109.26087,-2.103582,-3.2438903,-65.818115
32.20713,-60.66526,-5.73701,32.00411,14.832608,-5.9328876,-10.271038,8.196164,0.86109245,10.65475,-6.0282993,11.4437475,5.516732,4.4354715,-63.1056,-2.7316034,0.8737665,-108.54495,-1.2345915,2.1021323,-70.18954,-0.054331146,10.300182,-66.1717,-1.3878164,0.6916344,-107.53709,-9.857833,3.338873,-64.12902,-5.1158195,16.103977,-68.19027,-4.8569922,1.9202905,-108.83843,-4.3239746,-0.66706365,-66.141426,-23.872389,17.482147,-6.0920997,8.557387,1.5199219,-62.021923,-6.701614,8.338121,-106.752884,-2.1869917,-4.6536345,-62.591984
31.774767,-61.519474,-6.577737,31.945621,14.052089,-6.473399,-9.166406,7.7551665,-3.6920218,9.340099,-6.790935,2.8873267,5.32031,3.7102067,-57.643356,-3.0311887,0.69633365,-99.78834,-0.89997584,2.4109359,-67.43861,-0.20211175,10.205359,-67.20053,-1.2757864,0.39457,-109.6669,-9.132246,3.153071,-67.30262,-4.45949,14.875901,-70.52924,-4.9417214,2.1126068,-110.02451,-4.968628,-0.7437177,-67.60918,-24.000336,17.800829,-6.417581,7.8988867,0.41585958,-65.25297,-7.185568,8.011992,-111.17696,-1.9856418,-4.0907154,-66.494385
31.266603,-59.785934,-7.1461177,31.118258,14.030706,-5.8710485,-8.766234,7.7916665,-5.3389926,8.891644,-6.9757543,-0.3359144,5.168259,3.0687344,-55.784138,-2.7752066,0.70350677,-94.241264,-0.42745286,2.2235632,-64.7961,-0.7076393,10.057151,-64.91051,-1.7135428,0.5557015,-106.68027,-9.039234,3.221935,-65.63976,-4.168401,13.924468,-68.67273,-4.755354,2.470645,-106.085266,-4.7180576,-0.5603289,-65.23306,-23.25414,17.257952,-5.698197,7.735066,0.262974,-64.43241,-6.899171,7.6860266,-105.437325,-2.004123,-3.7462516,-64.443504
32.70128,-62.227497,-8.140437,32.989605,14.739793,-6.3827,-9.39098,8.219757,-4.0766325,10.0902815,-7.293698,3.1020706,5.4783816,3.9363475,-62.02601,-2.9840877,0.4641855,-104.59651,-0.71102077,2.391792,-69.41091,-0.66012394,10.435079,-69.605675,-1.5166018,0.41338828,-113.00007,-9.728834,3.0922496,-67.59488,-4.55489,14.6747265,-72.914604,-5.0381784,2.2735133,-112.207954,-4.703048,-0.5948186,-67.513535,-24.402645,17.967445,-5.902569,8.301624,0.55186933,-65.50059,-7.1032577,8.160743,-106.604454,-2.0560253,-3.8065772,-64.80966
31.69606,-60.49003,-6.883321,31.778341,13.465632,-6.3148384,-9.375071,7.8649716,-3.8511539,9.390078,-7.229693,3.014322,5.399116,3.6151347,-59.63963,-2.729555,0.6244345,-101.488716,-0.72304773,2.504974,-67.09107,-0.6577196,10.314833,-66.30201,-1.5295752,0.6027995,-108.901245,-9.344329,3.0523903,-66.15828,-4.962866,14.503769,-69.73262,-4.7068396,1.9879155,-108.931206,-4.831855,-0.5875496,-66.43398,-23.822685,17.522982,-5.998358,8.073743,0.28603724,-64.77007,-6.788733,7.999169,-105.206215,-2.0898387,-3.999437,-63.89974
32.628254,-62.344536,-8.82664,32.031635,12.403546,-7.571802,-9.341505,7.7744083,-7.040233,9.199555,-6.7444744,0.19089925,5.573922,3.5770266,-54.378284,-3.2003033,0.08219729,-94.0382,-0.5422051,2.4276721,-62.310165,-0.87871355,10.733876,-68.43329,-1.494246,0.5572749,-111.52448,-9.453872,3.38087,-67.623085,-4.5373106,14.957012,-73.07992,-4.6975045,2.3718338,-112.09958,-4.9548397,-0.44345945,-68.05426,-24.129967,17.837648,-5.7551565,7.4353323,0.3985245,-69.56429,-7.31441,7.9385467,-113.5836,-2.333487,-3.923052,-66.97993
31.594286,-60.757065,-5.195778,31.618755,13.483866,-6.790035,-9.547768,8.47552,-3.018924,9.244277,-6.810653,2.1117637,5.1567674,3.1168988,-58.55513,-2.730699,0.45455807,-102.790596,-0.6799908,2.1622782,-70.6658,-0.72126585,9.649009,-64.75965,-1.4035978,0.6269599,-106.6192,-9.921497,3.336582,-68.03845,-5.06142,15.178008,-67.39799,-5.1264243,1.8692334,-108.115814,-4.919347,-0.26113454,-69.119774,-23.399052,17.631416,-5.880681,8.15541,1.00974,-63.344658,-6.7196574,7.9057646,-107.99581,-1.9683884,-3.841327,-66.70786
32.69128,-63.41226,-5.318414,32.5932,14.418408,-6.637821,-9.917716,8.622966,-3.2196906,9.483207,-6.6957645,0.53103703,5.412979,3.189724,-61.295036,-3.2455716,0.48015794,-107.51331,-0.73240465,2.3237152,-75.29332,-0.8671408,9.547725,-66.93276,-1.5838468,0.5847581,-110.41207,-10.503459,3.411011,-71.63698,-4.9662566,15.320581,-70.5451,-5.412379,1.9927988,-113.4981,-5.128721,-0.44851473,-72.864426,-24.029701,18.131847,-5.9350066,8.388376,0.9575651,-66.41756,-7.00495,8.1641445,-114.98963,-2.008492,-3.9220343,-70.6951
31.336994,-60.422737,-4.3310676,31.16338,14.587661,-5.687133,-9.839254,8.18331,-0.1335599,9.535811,-6.043328,5.27244,5.3301473,3.2090895,-62.530544,-2.8075492,0.70032084,-108.99665,-0.8454539,1.7278646,-75.32159,-0.8293699,9.4918375,-65.14713,-1.8145157,0.4947141,-106.847305,-10.100849,3.5202646,-67.909195,-4.861842,15.263227,-67.38433,-5.147278,2.0958643,-108.92761,-4.3774657,-0.0646618,-69.76119,-23.175459,17.685062,-5.748086,8.123829,0.93842465,-63.618114,-6.8960185,8.263286,-108.607544,-1.8698077,-3.852229,-66.996216
32.02784,-62.548393,-4.472581,32.545254,15.605307,-6.395871,-10.055732,8.643101,-2.5497577,9.443962,-6.3295255,1.8187836,5.235831,2.8129344,-58.78544,-2.8386602,0.5153519,-103.547195,-0.5989252,2.002585,-74.530785,-0.97032946,8.795857,-65.43377,-1.6459839,0.7107182,-106.578926,-10.248289,3.4423022,-71.24858,-4.789753,15.431052,-68.1745,-5.3578196,2.1330235,-108.91863,-5.118246,0.0938792,-71.958534,-23.835045,18.319338,-5.7927027,8.336793,0.8731967,-66.04628,-7.062989,8.162257,-114.29416,-1.7253742,-3.5391526,-72.942696
32.898743,-60.32877,-5.7577853,31.310585,15.51864,-5.4933414,-10.577317,7.7462015,-0.736399,10.796516,-5.328759,10.64902,5.4298606,4.3593507,-64.36765,-2.653709,0.7579382,-112.44003,-1.2685483,1.9910929,-73.43491,-1.0503887,9.796049,-65.218956,-1.3920548,0.921601,-103.27033,-10.272959,3.5496693,-63.781605,-4.9158087,16.182396,-66.93574,-4.973806,2.3450658,-108.907715,-4.3497887,-0.2586354,-68.28312,-23.360247,17.976425,-5.3055706,8.614625,1.7738357,-61.14394,-7.560453,7.93425,-106.979774,-1.7595947,-4.0639095,-66.718765
31.694769,-58.899563,-6.283764,30.57944,12.577637,-7.258027,-9.596275,8.000301,-2.7682972,9.965358,-5.8502846,5.084543,4.2908783,3.0587668,-56.781063,-3.003601,0.5078252,-102.1182,-0.8213878,1.5729274,-69.01956,-0.38511276,8.851277,-61.02917,-0.8156299,0.88985753,-98.844666,-9.842812,3.1467814,-62.223827,-5.00959,15.323831,-61.94843,-5.549385,1.5281252,-103.350624,-4.8858285,-0.21298221,-66.20116,-22.383902,17.153812,-5.415133,7.8191204,2.305053,-56.251343,-6.4897738,7.031366,-102.721176,-1.9859506,-3.7005863,-64.352516
30.143843,-64.67032,3.3227453,31.729353,-3.3223639,-16.07,-8.432845,8.129715,-9.031576,9.498259,-6.507299,-1.0799778,3.3502893,2.0272098,3.6660104,-3.1035552,1.4927919,-13.970819,-2.2971764,3.6165848,-14.528765,-0.26181012,9.020601,-2.4060276,-1.9334965,-0.2689006,-6.6525,-5.072504,0.38202006,-10.190788,-5.8088827,15.76942,2.7622626,-5.055207,0.40018088,-9.17091,-0.8050167,-3.426865,-11.528028,-25.791306,19.242956,-6.272184,11.823002,15.62855,19.54395,-5.9242606,5.982041,-24.871895,-1.3773454,-5.737378,-19.99552
33.896004,-64.771645,-2.031877,32.636616,0.32490665,-13.650062,-9.09514,8.749347,-14.804502,11.053675,-6.841379,7.6247234,4.026626,1.9227588,-6.19419,-4.188128,0.9367298,-16.15872,-1.69426,2.8305013,-8.999894,-0.3378424,8.526686,-10.316524,-1.705965,0.17137061,-8.2757,-6.701312,-0.62277097,-9.854014,-5.249716,18.112967,-6.349001,-4.9323926,0.18467468,-11.35756,-0.92539537,-3.3236847,-11.237863,-24.685707,18.76827,-6.54095,11.294797,14.3249,12.326488,-5.0022388,6.058663,-21.216467,-0.30078158,-5.860283,-12.998209
31.66465,-61.65918,-2.4414082,31.251682,1.4561782,-12.724808,-8.960193,8.418274,-13.586205,10.270765,-6.675861,9.969382,4.3145866,2.7152157,-5.803437,-3.374376,1.0575583,-12.057372,-1.8531064,2.9646146,-6.6509423,-0.7218416,8.42276,-9.683764,-1.2882564,0.30676377,-4.895111,-5.9122887,0.038806338,-5.4278383,-4.9408607,16.78896,-8.439849,-4.2732887,0.64776266,-9.330466,-0.492068,-3.25999,-9.200532,-24.321213,17.888414,-6.177569,11.34205,14.673222,8.335853,-5.0524483,5.1978207,-15.811067,-0.80356395,-5.7339587,-8.868188
33.077198,-64.14797,-3.7855685,32.969902,1.6121994,-12.983567,-9.20517,8.323439,-16.003386,10.581137,-6.933333,9.035734,4.636893,2.4850402,-7.057588,-3.046679,1.2515037,-12.829051,-2.0124998,3.2150426,-7.8091245,-0.44952214,8.112944,-10.258488,-1.0381303,0.6558835,-4.6551247,-5.9041295,-0.8005706,-6.0459595,-5.6617794,17.23167,-8.501815,-4.3055634,0.9475824,-8.500256,-0.4938832,-3.6371672,-8.617027,-25.169886,17.978281,-5.818976,10.646266,14.679674,7.81912,-4.767464,5.204687,-12.211176,-0.7374662,-6.253074,-5.9856896
30.353588,-57.561207,-4.2737055,29.257172,3.0330942,-10.931036,-8.435281,7.67021,-12.741614,10.087048,-6.8374343,13.465095,3.6547303,2.6222029,-9.556491,-2.550464,0.90015215,-10.184403,-1.8843243,2.7006254,-2.3252378,-0.6986621,7.6116867,-12.347621,-1.221602,0.5906232,-5.0760117,-4.9038153,-0.026603263,-3.6769137,-5.0109982,15.400572,-11.273381,-3.9613483,0.14162782,-7.596957,-1.0521681,-3.2456257,-8.249244,-22.03846,16.751171,-5.6460223,10.032285,12.11503,1.8954754,-4.572276,4.6939783,-10.153924,-0.23265117,-5.3155913,-4.3745384
29.331625,-55.644104,-2.8147552,28.658651,2.8515723,-10.342872,-8.057129,7.656314,-9.692621,10.310791,-6.1806626,13.932289,3.3619928,2.8103688,-6.4549494,-2.4787998,1.0003303,-8.070828,-1.9117429,2.8360257,-3.2845967,-0.6189889,7.3924026,-9.58224,-0.8880635,0.4586735,-5.4627857,-5.3302517,0.0770813,-4.6119943,-5.0391355,14.747947,-8.352499,-3.7490149,0.49210393,-6.558113,-0.8144631,-3.08227,-7.7782817,-21.861599,16.059778,-5.499515,9.700626,11.74374,3.638446,-4.377875,4.580289,-11.654976,-0.41179162,-4.8739915,-6.7271214
32.965965,-62.631332,-3.9752688,31.998863,3.9111357,-11.603189,-9.2362795,8.08628,-11.485145,11.199551,-7.015767,16.217316,3.9649353,3.1104767,-9.360046,-2.9861617,0.90639377,-10.048637,-2.0090473,2.918277,-0.52949864,-0.65528697,8.78015,-13.166197,-1.4797564,0.4613748,-6.086366,-5.6489124,0.00037313625,-3.6495018,-5.2620373,17.16261,-11.952558,-4.1200075,0.6284267,-6.32239,-1.2771192,-3.5177991,-9.158656,-23.862448,18.152134,-6.1247826,10.702081,12.293543,0.58714753,-5.1186604,4.9558344,-10.391681,-0.024859268,-5.7517614,-5.586249
29.441067,-55.73779,-3.476993,28.513681,3.3463616,-10.609105,-8.207735,7.252331,-10.379053,9.904248,-6.2485995,14.480648,3.3349202,2.781582,-8.43184,-2.7479205,0.7878494,-8.3865385,-1.740457,2.7343662,-0.7044755,-0.48000622,7.5321965,-11.668784,-1.2962612,0.44358242,-4.938945,-4.997776,0.20917237,-3.2656908,-4.5979495,15.145331,-10.674372,-3.7746968,0.4165631,-5.9293776,-1.1587555,-3.2627032,-7.755086,-21.257643,16.129417,-5.3110585,9.594303,11.219328,1.70917,-4.439944,4.275066,-10.208612,0.06328721,-5.0384345,-5.1805754
30.732952,-57.7008,-4.3257966,29.60345,3.8451912,-10.803306,-8.386605,7.6058764,-10.48505,10.396974,-6.22065,14.832498,3.5987277,3.0797613,-8.863592,-2.8357518,0.76878035,-9.56208,-1.7917169,2.7266898,-0.66191334,-0.59785384,8.375997,-12.609336,-1.247344,0.6676765,-5.7767906,-5.3252563,0.0027309693,-2.8588543,-4.991056,15.766596,-10.844651,-3.7598116,0.66791,-5.952044,-0.92489386,-3.142246,-8.175285,-22.532812,16.839645,-5.451624,9.82319,11.265615,-0.64681697,-4.421035,4.8688445,-9.388244,-0.14831042,-5.3128977,-4.765207
32.71426,-61.12365,-5.2607346,30.800537,4.008454,-11.469018,-8.82857,7.9590244,-13.820385,10.625852,-7.014554,14.945551,3.9285424,2.8440638,-12.383607,-2.9298449,0.91259825,-10.921837,-1.8385642,3.0501695,0.08662722,-0.47507367,8.679728,-15.906496,-1.3991466,0.32107484,-6.3041267,-5.2437005,-0.12392455,-2.9677737,-5.1164536,17.06293,-14.277089,-3.9974084,0.2858886,-6.9069705,-1.2446501,-3.3813214,-9.41834,-23.285208,17.508698,-5.7619004,10.536564,11.332633,-0.36036044,-4.724566,4.9576583,-9.491974,-0.15090984,-5.812369,-3.5491922
32.206852,-61.470913,-6.524531,30.645544,3.3021836,-11.32024,-8.846803,7.6971188,-12.948792,10.931205,-7.251307,17.194017,4.142961,3.0014582,-15.470177,-2.5392294,0.73039234,-12.555771,-1.4145297,3.175288,0.30961126,-0.7323815,9.064259,-17.963814,-1.6577578,0.32491305,-8.586472,-5.34335,0.043612618,-3.7421577,-5.2737727,17.242113,-16.193398,-4.4187555,-0.08974819,-9.296661,-1.2241803,-3.1235871,-9.928504,-23.519444,17.522816,-5.8758492,10.760299,10.44522,-0.6219232,-4.837149,4.699604,-9.341527,0.6220837,-5.619016,-2.5312223
33.612312,-62.95243,-5.7790017,32.00882,4.595041,-11.47603,-9.009202,8.119298,-12.734234,11.074893,-7.5620947,15.246984,3.8986201,3.4981797,-14.1569805,-2.7616186,0.9322476,-13.587034,-2.0519426,2.634323,-0.16807649,-0.50488925,9.603889,-17.941387,-1.1071415,0.4506483,-7.7644424,-5.443703,0.031476453,-3.8171623,-5.344233,17.097418,-14.806961,-4.377766,0.35011637,-8.276657,-1.441723,-3.6086893,-10.096069,-23.375957,18.391155,-6.5031333,10.733178,11.3482065,-0.32738924,-5.2824044,5.029666,-11.716327,0.021352287,-5.6821604,-5.649516
31.882973,-59.953537,-4.91406,30.4228,4.359779,-10.465888,-8.698932,7.8102865,-11.783991,11.122952,-6.52004,16.526564,3.6535091,3.3025105,-11.209945,-3.0595527,0.9077296,-11.1883955,-1.9867271,2.9630907,-0.5054463,-0.4581533,8.66281,-15.317735,-1.3567028,0.4553242,-7.005402,-5.1509132,0.08527902,-3.2769568,-5.2091947,16.32738,-12.718728,-3.9460268,0.30301666,-7.25766,-1.1937343,-3.2221687,-9.182646,-22.949032,17.398296,-5.95796,10.10179,10.985811,-0.02018887,-5.0700254,4.7953944,-11.018454,0.11376853,-5.3955755,-4.8588
34.00612,-63.37666,-5.609122,32.360447,4.070695,-12.091807,-8.872765,8.168965,-13.276716,11.041372,-7.3396854,14.57532,3.950549,3.064811,-13.817114,-2.7256062,0.9265952,-13.6507015,-1.7466574,2.9054828,-0.50575244,-0.4908887,9.615828,-18.646212,-1.047827,0.7196757,-7.351215,-5.8709908,-0.08529362,-3.514927,-5.2791104,17.25281,-14.936523,-4.4131823,0.603611,-8.350759,-1.1511614,-3.794329,-9.7984,-23.985435,18.182524,-6.3442197,10.924851,11.943162,0.04657858,-4.872753,5.1841464,-10.468191,0.0062910207,-6.006355,-4.645157
32.65934,-61.410236,-5.2960024,31.150326,4.44446,-11.332567,-8.641032,7.994008,-12.923638,10.681383,-6.9512362,14.28848,3.9017463,3.0114067,-13.170958,-2.824849,0.625127,-13.074174,-1.8981621,2.7483025,-0.76105577,-0.63601357,9.004769,-16.718636,-1.1310874,0.5293757,-6.635256,-5.4113984,0.06681077,-2.6003091,-5.0225644,16.655115,-14.375619,-4.1769013,0.57834333,-7.625229,-1.216722,-3.5333393,-9.336313,-23.275307,17.88304,-6.022736,10.466709,11.457916,0.064148225,-5.2004986,4.7475233,-11.503807,-0.040079456,-5.8021345,-4.271766
33.442944,-62.483574,-5.2242546,32.205643,4.696267,-10.989754,-8.604617,8.308116,-12.9841175,10.903277,-7.2883725,15.302545,4.110527,3.081706,-15.118192,-2.9842498,0.8775153,-15.947839,-1.877533,2.9630685,-1.332675,-0.56792426,9.540692,-19.215508,-1.154893,0.3302792,-9.561372,-5.856607,-0.30217695,-3.679462,-5.3002896,16.742723,-15.180411,-4.6974454,0.43087512,-9.669503,-1.436635,-3.7873485,-10.475927,-23.823183,18.139936,-6.322394,10.828799,11.416223,-0.73184055,-4.922877,5.3079705,-12.511542,-0.59061944,-5.826596,-4.0793977
31.675209,-60.432537,-4.7303715,30.756697,3.7570817,-10.882513,-8.998639,7.9799595,-11.615808,10.671009,-6.8139663,15.4171295,4.037243,3.4393847,-11.605163,-2.8084786,0.98609763,-12.458119,-1.8551215,3.1309586,-0.98311985,-0.308527,9.009767,-15.138569,-1.3333788,0.69847673,-7.3471947,-5.0936317,0.25442734,-3.5479362,-5.195258,16.522917,-12.337873,-3.7702754,0.4474913,-7.1213984,-1.0237828,-3.1351416,-8.918145,-23.074968,17.735975,-5.9293885,10.2011795,11.110285,0.50437474,-4.9445653,4.6400433,-11.073069,0.08727546,-5.7490234,-5.3135743
35.36155,-65.728485,-4.108083,34.42135,4.521622,-11.724778,-9.630428,8.622843,-10.957154,11.82594,-7.560661,16.018887,3.9489996,3.8479707,-10.753591,-3.1885405,0.9514767,-13.462549,-2.1792607,2.612575,-2.5043721,-0.6566251,9.823492,-15.209591,-1.6037434,0.808673,-9.712091,-5.6783514,0.22665346,-6.5643086,-6.1409984,17.82322,-10.880813,-4.3976464,0.28504854,-8.047591,-1.5648754,-3.6183155,-10.818977,-25.399345,19.473665,-6.343546,11.344575,12.237694,1.479184,-5.551485,5.985729,-13.818333,-0.049589004,-5.668997,-8.7483225
34.360912,-62.384747,-6.4722495,31.949915,4.575904,-10.856669,-8.578572,8.3617115,-12.142272,10.852133,-7.9944897,15.143247,3.8326666,3.196449,-14.911765,-3.6873076,0.73882276,-19.032438,-1.1119599,3.5291605,-3.324382,-0.21421485,8.708869,-18.999025,-1.6638542,0.34887484,-13.647201,-5.427756,0.13387236,-6.493048,-4.5304227,15.829657,-16.78247,-3.9710877,0.41433018,-14.951324,-1.7191432,-3.4076762,-13.085658,-23.884169,17.409252,-6.0839667,10.233947,10.24899,-2.4204586,-5.0754333,4.975858,-16.950022,-0.45649856,-5.670114,-7.8287396
34.14819,-62.23713,-6.8132014,32.253365,4.1083374,-11.112094,-8.790301,8.36068,-11.666584,11.159992,-7.0622997,14.649041,3.9501038,3.8167715,-13.949484,-2.6696498,1.1539598,-16.8707,-1.5471152,2.5920892,-2.6697724,-0.2680934,9.82184,-18.023996,-1.2263291,0.7932585,-11.217639,-5.6843476,0.20181589,-4.259453,-5.2768016,16.324057,-14.466561,-4.2768636,0.45056552,-12.20738,-1.0319445,-3.542937,-10.318475,-24.224665,18.022497,-6.0439496,10.592063,11.55228,-2.023779,-4.9850745,5.0001326,-11.503614,-0.27159023,-5.392136,-4.0413795
32.694088,-58.328655,-6.8294344,29.760796,3.184539,-11.125954,-7.4187512,7.5797668,-14.664138,9.011447,-7.1224046,7.991869,3.574527,2.3277903,-16.407104,-3.0541494,0.721312,-22.118874,-1.3999075,2.7145314,-7.3781276,-0.6831643,8.620656,-19.689219,-2.0488772,0.85536206,-12.537141,-4.7425766,0.33024204,-5.721736,-5.088072,14.1404,-18.099567,-3.969261,0.7808742,-17.958868,-1.4492488,-3.291211,-13.805389,-22.609636,16.458235,-5.649985,9.624751,9.348975,-4.9849577,-4.636677,5.319207,-15.827683,-0.3506798,-4.67594,-5.7988586
31.825691,-59.55551,-5.3832436,30.364687,3.4986749,-11.076002,-8.198174,7.634454,-12.352332,10.097793,-6.7460523,12.474379,3.6067479,3.5393612,-11.119634,-2.9280245,1.0858705,-14.45823,-2.0789533,2.537314,-3.4544058,-0.24806362,9.366347,-15.344075,-1.1042093,0.4505349,-7.146034,-4.764192,0.31127566,-3.8296542,-5.88627,15.998317,-11.563086,-4.403721,0.23654743,-8.113618,-1.3082385,-3.4303503,-9.3949375,-22.62873,17.252167,-5.8801947,10.174253,10.557332,-0.9406215,-4.5013714,5.0938106,-10.178148,0.05087327,-5.405841,-4.6475835
31.99921,-60.692387,-5.223915,30.986244,4.3575397,-10.830924,-8.691927,7.973892,-13.156586,10.616423,-7.040971,16.324045,3.8654382,2.8534853,-15.695981,-2.8443716,0.8961702,-13.634793,-1.940208,3.1118665,0.3677335,-0.7365063,9.228961,-19.397884,-1.236078,0.28468108,-8.921915,-5.233448,-0.23755704,-3.2588556,-5.233293,16.545471,-15.572947,-4.4214206,0.0757342,-8.834595,-1.3682988,-3.437982,-10.129399,-23.257765,17.5999,-5.867467,10.583362,10.388608,-1.0411829,-4.5053453,4.906513,-11.111035,-0.15821993,-5.742384,-3.3024447
31.564579,-59.13175,-5.5743237,29.89552,4.6001935,-10.5939045,-8.271382,7.7592416,-13.455452,10.603153,-6.470355,15.357567,3.7359736,2.8900838,-13.319959,-2.825262,0.86172557,-11.0860405,-1.827232,3.043464,0.80371326,-0.4600098,8.645217,-17.370586,-1.2959796,0.2594163,-7.004464,-4.949907,0.0023134984,-2.243688,-4.7734303,16.234108,-14.655015,-4.076928,0.3764153,-7.088982,-1.1671082,-3.4370902,-9.0806675,-22.485003,16.976496,-5.70667,9.982634,10.284929,-0.79147416,-4.832448,4.5744767,-10.665226,-0.1864592,-5.4945145,-3.4042208
30.809044,-58.471806,-4.3255906,30.296423,4.3899875,-9.332723,-8.933965,8.195893,-9.248891,10.566834,-7.2461724,18.831436,4.031188,3.45909,-15.821207,-2.7994802,1.0379033,-15.930983,-1.4220847,3.3327186,-1.0128362,-0.467951,9.312056,-18.59372,-1.4917202,0.40617487,-13.085773,-5.4802785,-0.6606047,-5.418877,-5.0604696,15.59458,-14.543481,-3.4301045,0.21148427,-10.695289,-1.0964998,-3.1270876,-10.225775,-22.932383,17.240408,-5.6405926,10.237708,9.691947,-2.8187652,-4.8978753,5.242161,-12.831118,-0.36168936,-5.37745,-4.3931584
34.54871,-59.13878,-13.755089,29.500683,3.3526452,-11.745169,-8.134359,8.116789,-18.95357,8.41033,-6.509183,-3.870686,3.9827166,2.8636832,-29.842463,-3.140901,0.91173774,-49.241882,-1.1582749,2.1672652,-25.93655,-0.6396682,8.736457,-34.729076,-1.8589994,0.89776945,-38.569195,-6.2184973,0.2896931,-20.270647,-4.1711335,14.558049,-35.220116,-4.7102156,1.0385798,-48.915806,-1.7733151,-2.805896,-29.696377,-22.27004,16.978333,-6.255261,8.687068,7.700317,-17.537735,-5.128179,5.8455915,-34.098293,-0.90671974,-4.929962,-16.699697
31.006933,-56.394722,-5.4162445,29.13562,5.2351694,-9.47237,-7.8243895,7.4249697,-10.514077,9.813819,-7.264516,13.923837,4.059913,3.5722628,-17.428675,-2.495197,1.0092028,-20.968697,-1.2376157,2.7284155,-5.1195245,-0.35596123,8.580302,-21.689064,-1.5728393,0.73449546,-17.869099,-5.018442,0.3541959,-8.35261,-4.865922,14.296603,-17.124384,-3.958099,0.41336375,-15.440004,-1.4053211,-2.885035,-13.126046,-21.740644,16.48777,-5.7984385,9.431668,8.890554,-3.6887279,-4.5900874,4.9843693,-14.801005,-0.9300832,-4.9319577,-8.450441
30.53194,-55.419056,-4.7192144,28.906614,7.1364,-8.413306,-7.971694,7.5924053,-8.163958,8.9971895,-7.1585484,9.828425,4.120048,2.7148564,-24.780588,-3.010035,0.63061136,-43.87112,-0.8059396,2.5945468,-24.91181,-0.93373823,8.037955,-29.949965,-1.3132827,1.1233937,-42.490017,-6.1376343,0.8100539,-26.051779,-4.0463295,13.557938,-26.790316,-4.5495667,0.5896017,-41.313965,-2.3150291,-2.1860452,-29.732214,-21.972229,16.13816,-6.0581264,8.432464,6.828253,-17.597961,-5.3703513,5.0242305,-40.31906,-1.1291437,-4.132949,-24.286224
31.352886,-58.7503,-4.9330454,29.921732,4.4400463,-9.945005,-8.088006,7.60507,-13.122058,10.944251,-6.487715,16.17613,3.7827003,2.947524,-14.4005785,-2.6608217,1.1592505,-12.87239,-1.8077328,3.1149821,-0.6866081,-0.35438964,8.719106,-17.923664,-1.3095325,0.37895897,-8.0917225,-4.923164,0.10371701,-3.2571385,-4.7076755,15.671368,-14.131601,-3.9706447,0.19248106,-7.433235,-1.2624255,-3.236747,-9.767879,-22.370615,17.114473,-5.4023857,10.120918,9.09378,-0.51610595,-4.6789317,4.557021,-11.464999,-0.2810675,-5.3269577,-3.8594983
33.91312,-61.12967,-7.118408,31.997103,6.9531183,-10.200447,-8.521047,8.614467,-11.910125,9.214266,-7.9983144,5.511744,3.9681437,3.4979959,-26.612295,-2.9429553,0.47708783,-45.11412,-0.95904225,2.6108954,-25.5604,-0.84555167,9.061939,-34.725544,-1.0646244,1.5236661,-47.404083,-6.630344,0.7759333,-28.135122,-3.998202,15.500622,-31.068943,-4.8504972,1.0291309,-44.580727,-2.7345788,-3.0290914,-30.522942,-23.081448,18.081991,-6.976302,9.137097,8.5272665,-15.889768,-5.9998846,5.433782,-38.349247,-0.7920555,-5.0565906,-22.875786
31.825981,-58.746105,-5.502052,30.156929,4.278118,-9.851311,-8.423259,7.725985,-12.652285,10.859568,-6.5263467,15.698945,3.650312,3.5417829,-12.897385,-3.070205,1.0092875,-12.536961,-2.1224236,3.0865073,-0.60671115,-0.41670626,8.981291,-16.70528,-1.3647925,0.53655994,-8.885023,-5.022083,0.20728481,-4.4579554,-5.133466,16.133228,-13.122398,-3.7787316,0.18156752,-8.213733,-1.2642124,-3.001738,-10.212058,-22.596529,17.222494,-5.696819,10.068685,9.850246,-0.44008857,-4.8144393,5.1277065,-11.866522,-0.25589418,-5.254726,-5.283256
32.558575,-60.885784,-4.3825135,31.447285,5.402504,-10.099539,-9.112744,7.876747,-10.247988,10.782894,-7.1769886,17.479902,3.728059,3.7464085,-14.785299,-3.0472124,0.5887754,-15.706436,-1.761626,2.7073753,-2.6275105,-0.49808177,9.53634,-18.465296,-1.5745317,0.5796341,-12.770389,-6.2060347,-0.20461904,-6.5252433,-5.5471907,16.47174,-13.640014,-3.6182098,0.33307266,-9.74636,-1.4653264,-3.033998,-10.39393,-23.61121,17.776842,-5.743398,10.255935,10.154587,-0.9795201,-5.150354,5.511416,-15.428054,0.020334264,-5.749535,-6.8855104
33.394005,-60.064693,-11.265807,30.817406,5.397896,-10.952767,-8.240508,8.466395,-12.534324,10.065675,-7.4128227,11.417165,4.5104704,3.9490228,-36.66696,-2.8093405,0.5517566,-52.217087,-1.3268412,2.8223324,-21.533981,-0.55771995,9.62218,-43.013622,-1.5680878,0.6544267,-53.483696,-6.6944532,0.34777215,-24.443884,-3.7055802,15.122725,-40.723114,-5.3068943,0.7770298,-52.006317,-1.2782592,-3.4353411,-29.586002,-22.294956,17.124172,-6.382376,8.849998,7.8025236,-17.922718,-5.485048,4.963048,-35.386585,-1.4782957,-4.95036,-17.199823
33.63298,-60.92815,-8.215426,30.953705,4.253396,-10.739732,-8.016571,8.093383,-14.232935,9.877383,-8.213924,10.225291,4.2975273,3.5259044,-22.64942,-2.68186,0.82738954,-28.199945,-1.2473339,2.8857138,-8.412197,-0.6009336,9.72088,-26.644173,-1.6778771,1.0535886,-24.157688,-5.3954835,-0.26252565,-10.240981,-4.6407843,15.017329,-22.878277,-4.3563466,0.58665985,-22.886017,-1.3201686,-3.4386787,-15.316028,-23.181461,18.036339,-6.4170103,9.8793335,9.841818,-4.414154,-5.0907245,5.2941284,-15.285726,-0.8055036,-5.0366488,-7.435378
34.199608,-60.49186,-7.23951,32.003166,7.0228233,-9.108504,-8.582147,7.7027373,-12.0175,10.025368,-8.696803,13.365114,4.711734,3.744437,-25.41084,-2.9547763,0.48291424,-36.226807,-0.9428142,3.0292575,-14.008683,-1.3141222,9.807921,-27.573408,-2.117791,1.2431029,-28.576426,-5.6251197,0.2620432,-14.539146,-4.5049872,14.474984,-22.90653,-4.6168966,0.2989844,-26.319363,-1.5287472,-2.8141642,-20.053219,-23.958595,17.961138,-6.4406962,10.108019,8.327991,-9.315574,-5.7474613,5.611389,-24.413921,-1.1509553,-4.671227,-13.201046
32.5287,-60.74072,-5.7338533,30.90104,4.9777937,-10.446714,-8.952369,8.039735,-13.39092,10.88858,-6.834106,15.422254,3.7440963,3.344329,-13.780823,-2.9317954,1.201921,-13.111713,-1.8908381,2.7102199,0.32232872,-0.4052736,9.9338875,-18.01907,-1.4174057,0.42494458,-8.608044,-5.3499417,0.22490592,-3.1115434,-5.0609193,16.556267,-14.340214,-3.9808707,0.18902408,-8.1169,-0.94942355,-3.20429,-9.432445,-23.062916,17.895765,-5.683511,10.170475,10.209789,-1.8976268,-4.9142737,5.042238,-13.27078,-0.25806758,-5.685015,-4.965973
32.821083,-58.50225,-6.1591873,30.961363,8.637426,-7.798581,-8.148909,7.715687,-7.0898533,8.708712,-7.5020814,0.24356914,3.9890103,2.7644207,-43.331238,-2.1316721,0.33541936,-83.53769,-0.23423189,1.8253877,-57.29959,-0.9528468,9.122188,-48.574486,-1.282257,1.5733278,-80.52994,-7.976419,2.0638661,-51.225727,-4.72631,14.280533,-44.71625,-5.6209846,1.0861236,-78.88294,-4.2547407,-0.9423061,-52.991207,-23.019,17.388573,-5.937104,8.350392,4.1445045,-35.49348,-5.829146,6.282609,-68.98459,-1.4158221,-3.4763758,-45.318954
32.57067,-62.342613,-3.0760424,32.08659,5.0671234,-10.053451,-9.389705,8.106845,-10.386298,11.479071,-7.3384624,19.116283,4.1820216,3.5838706,-14.047123,-2.6983123,1.2071127,-15.399247,-1.6346639,2.697915,-2.3669696,-0.62888896,9.420432,-17.212946,-1.9174505,0.44532827,-9.861116,-5.618932,0.21225294,-4.8250866,-5.5862603,16.309841,-12.42215,-3.938168,0.058833957,-7.6238966,-1.2084428,-2.868622,-9.819521,-23.823221,18.308908,-5.5194516,10.471885,9.698787,-0.908969,-5.320206,4.8236094,-13.959749,-0.12634507,-5.7619314,-6.057042
32.931664,-61.561493,-1.6048925,32.04377,5.4192433,-9.124241,-9.130439,8.010615,-9.438263,11.705333,-7.2718844,19.69272,3.9009917,4.1656847,-13.697526,-3.0277643,1.3717043,-16.291367,-1.567016,2.822805,-4.194754,-0.31393036,9.378614,-17.13624,-1.9291834,0.5136135,-11.457249,-5.828503,0.42368755,-6.4146566,-5.5195932,15.907664,-10.450269,-3.8300223,-0.29879284,-7.765973,-1.5365746,-2.9081287,-10.543256,-23.991812,18.345333,-5.4529176,10.612306,8.874063,-0.09043516,-5.3461814,5.3430543,-16.43526,-0.35031387,-5.7546444,-8.542284
31.49912,-60.14038,-4.309428,32.107044,6.963676,-8.6452,-9.356554,7.3565474,-10.775881,11.068195,-8.1877775,19.535421,4.764483,3.9113092,-21.768057,-2.4764998,0.20612668,-23.570944,-0.77798444,2.455537,-4.751533,-0.8495145,9.942843,-22.127653,-1.8789732,0.41998783,-15.081651,-6.428352,-0.488259,-6.708841,-5.7785587,15.16069,-16.890497,-3.8273866,-0.15691634,-10.335317,-1.928563,-2.5808392,-12.124345,-23.622591,17.634802,-5.0128293,10.596994,7.8680735,-4.0392947,-5.013426,4.9829683,-15.342071,-0.71239144,-5.052923,-5.093102
30.655901,-57.66048,-3.126292,29.9204,5.043878,-9.153606,-8.363691,7.536234,-10.480585,10.437277,-7.1105704,16.926306,3.8084967,3.5974202,-14.659678,-2.6910233,0.51558757,-16.47725,-1.4321604,2.3816044,-2.694228,-0.5873687,8.983554,-17.546146,-1.4158298,0.28200847,-10.01485,-5.386563,-0.116351664,-4.889034,-5.3182254,15.072494,-12.739075,-3.86577,-0.069709405,-8.084953,-1.6010982,-2.8608298,-10.034825,-22.09731,17.08931,-5.4566464,9.870722,8.847544,-1.4068998,-4.9650664,4.9396725,-14.473607,-0.4483072,-5.176467,-5.6466923
30.910437,-58.16885,-5.39012,29.375446,3.590369,-10.821204,-8.138707,7.5488687,-13.881868,9.944331,-6.546342,14.217426,3.8225274,2.787762,-14.666609,-2.2617574,0.9609994,-13.26801,-1.5604392,2.9980729,-0.8734505,-0.34699044,8.632626,-17.837196,-1.4022671,0.5639664,-7.1279483,-4.7942996,0.26806638,-2.983056,-5.112369,15.839057,-14.628522,-4.239111,0.261764,-7.9348617,-1.4883353,-3.0604312,-9.368586,-22.159746,16.9029,-5.6009192,10.326439,9.864932,0.16816683,-4.7150683,4.376867,-10.122523,0.15885584,-5.6577487,-3.0310686
33.67404,-64.25466,-5.7724547,32.153057,4.185021,-11.005732,-9.19712,8.275809,-14.229189,11.701025,-7.272216,19.056913,4.0623116,3.5177164,-18.061682,-2.4006543,1.0772372,-14.839417,-1.5629966,3.3468535,-0.32612237,-0.53429025,9.909444,-20.301105,-1.6583744,0.32865316,-10.611092,-5.784882,0.15392718,-3.696116,-5.8553615,17.736965,-16.946238,-4.1557465,0.12817338,-10.2544565,-1.457924,-2.9688003,-10.502233,-24.827139,18.915491,-5.688736,11.31636,9.97373,-1.0532922,-5.0708714,4.600165,-12.930752,0.50199306,-6.0794783,-3.0581307
33.152252,-60.60586,-4.11647,31.901226,7.5252004,-8.92697,-9.45948,8.491393,-6.789621,10.934658,-8.667917,19.819906,4.902966,4.140288,-21.462729,-3.0941074,0.27133122,-33.161995,-1.050184,3.1212027,-13.706871,-1.2186413,9.491436,-24.173145,-1.3634045,1.352851,-27.917011,-6.2892737,-0.3832291,-15.70685,-4.0605116,15.459037,-19.522112,-4.3247128,-0.19649667,-24.621956,-1.6594558,-2.981449,-20.125568,-24.000134,17.962746,-6.8714213,10.830428,8.844317,-9.220363,-6.105066,5.5405827,-28.397745,-1.1285583,-5.4280133,-16.500565
31.12974,-59.23398,-5.108529,31.293076,5.9300017,-8.800801,-9.315518,7.96123,-9.895972,11.355956,-7.575736,20.898508,4.462771,3.4549558,-22.027325,-3.2996638,0.5838427,-22.22339,-1.2957172,2.9402244,-2.9661229,-0.27098897,9.747455,-22.327482,-1.7730917,0.33168328,-16.711058,-6.1048627,-0.8699349,-5.651061,-5.332835,14.893126,-17.749283,-4.1423063,0.10721788,-12.5864525,-1.5165458,-3.2548304,-11.148672,-23.372736,17.13482,-5.1230583,10.477493,8.453312,-4.3586073,-4.78447,5.2450247,-14.532553,-0.2950384,-5.149303,-3.7623792
30.623152,-56.87798,-4.3351927,30.509558,5.76841,-8.432861,-9.032619,7.8510523,-7.9694934,10.759253,-7.6911607,19.094116,4.7185717,3.9586542,-21.001951,-2.651877,0.7481297,-25.182806,-1.050883,2.9807065,-6.6634793,-0.45511386,9.671481,-22.291668,-1.8390844,1.0440652,-19.965944,-5.4327664,-0.51947147,-8.40044,-5.4397497,14.061813,-16.277498,-4.0974345,0.20287473,-14.25896,-1.5595146,-2.929472,-12.367148,-22.351206,16.861425,-5.5581756,9.916111,8.55525,-4.4543996,-4.3901887,5.2875166,-14.540163,-0.7097825,-4.736615,-7.4911027
32.69348,-55.651844,-8.379394,29.190496,10.3211,-7.016925,-7.8292146,7.0736785,-6.9615436,9.266138,-7.3372326,7.482676,4.4934626,3.5142946,-51.1367,-2.4854474,0.6649599,-82.43693,-0.7980059,2.1071389,-47.880615,-0.91432434,9.392998,-51.335873,-1.8497488,1.193885,-72.08815,-6.9652324,1.4104071,-40.70618,-3.8834121,13.4721,-49.33633,-4.9488144,1.4784913,-74.09659,-2.7051494,-1.4913559,-46.338997,-21.950861,16.182648,-5.7623663,8.353951,3.7217581,-34.203915,-5.931955,6.122789,-62.242813,-1.9352516,-3.4396758,-38.17215
31.983635,-61.091934,-3.3829482,31.71952,5.3289185,-9.333191,-9.336188,7.540344,-10.394098,11.222089,-8.042638,20.227468,4.497897,3.4203708,-20.016602,-2.797028,0.683034,-20.232534,-0.92049205,2.7390685,-3.3981607,-0.22361332,9.66484,-21.246946,-1.7170962,0.34835964,-13.5783615,-5.8464704,-0.18188122,-5.61894,-6.1239643,15.748943,-15.491527,-4.2285657,-0.26768965,-8.954556,-2.2159157,-2.7294378,-11.3986635,-23.5245,17.65789,-5.414669,10.50392,7.917564,-1.9385638,-4.315303,5.1104603,-14.134729,-0.4407693,-5.542164,-4.2642674
34.151585,-65.36756,-4.789151,33.531086,5.401925,-11.023224,-9.542549,8.417521,-13.648425,11.716366,-8.092749,19.14478,4.4094334,3.4995956,-19.40205,-2.5289378,0.9913493,-17.742565,-1.342489,3.0582838,-0.4084883,-0.40828726,10.97102,-22.400795,-1.5482935,0.31039077,-11.202012,-5.7111697,0.09423807,-3.4927502,-5.3622527,17.591251,-17.335388,-4.171281,-0.120610416,-8.941743,-1.4335822,-3.4601586,-10.802571,-25.090788,19.216604,-5.733239,11.480726,9.336644,-2.6610484,-4.976428,4.9445925,-14.482519,-0.21250314,-6.166121,-3.696887
32.208557,-59.499443,-1.4954072,31.361292,8.066546,-7.7688627,-9.265545,8.094922,-5.099021,10.802495,-8.505136,20.651566,4.215976,4.51083,-20.680408,-2.7022471,0.42185572,-33.084206,-1.1245213,3.2352762,-16.212137,-1.3851488,9.766914,-24.04713,-1.6814721,1.5383859,-28.788752,-5.888072,-0.20777138,-17.02718,-4.6149607,15.239614,-17.527195,-4.275834,0.18784957,-22.797398,-1.8731825,-2.7682276,-20.15161,-23.201263,18.1292,-6.1090403,10.316287,8.788176,-7.562484,-5.7648363,5.7688046,-28.904028,-0.89663047,-4.647084,-18.412485
29.879671,-56.07559,-3.862853,29.698694,6.9482465,-8.11431,-8.86899,7.956428,-6.063141,10.184844,-7.8400507,19.160645,4.223074,3.6487627,-20.4612,-2.7504475,0.35670543,-27.335081,-0.6998301,2.9899685,-10.232653,-0.71518254,9.5063095,-24.825407,-1.5521516,1.1354752,-28.589613,-5.7048087,-0.31941617,-14.041922,-4.090085,14.058359,-19.817059,-3.424842,0.2522536,-22.14253,-1.483123,-2.602199,-16.765762,-22.302738,16.769032,-6.194057,9.448453,8.083719,-8.526509,-5.442663,5.211678,-23.282879,-0.5359885,-4.8658547,-12.29013
33.487072,-60.44437,-6.381147,31.331861,5.3217807,-9.992495,-8.050292,8.283424,-12.001456,10.1623745,-8.40865,12.498642,4.384883,3.5889194,-20.923412,-2.4342685,0.5009995,-27.841757,-1.2385803,2.742308,-9.777044,-1.1453165,9.230682,-24.271528,-1.642691,1.0661219,-22.897257,-5.4051795,0.21613292,-11.617407,-5.0434027,15.099053,-19.949259,-4.636104,0.23440965,-20.99832,-1.8061057,-3.429056,-16.569551,-23.274715,18.300175,-6.556301,10.305304,9.436641,-5.8179407,-5.517913,5.4686117,-18.464085,-0.92483735,-5.0200295,-9.967628
31.944458,-58.738182,-6.328046,30.065794,4.3740535,-10.828193,-8.12805,7.723321,-13.72533,10.186574,-6.7410016,13.099373,3.7826655,3.0447345,-13.874611,-2.5117664,0.70458907,-13.001036,-1.8987279,2.645975,-0.33321893,-0.51683444,9.211419,-17.303696,-0.9974978,0.64245576,-7.7240224,-5.241654,0.03433404,-3.5262725,-5.103018,16.044266,-14.582862,-3.9344907,0.48013383,-7.9874573,-1.2708895,-3.2840083,-9.7893,-22.46185,17.151255,-5.7232704,10.232727,10.189976,-0.88976496,-4.8707395,4.9106874,-11.159444,-0.15923934,-5.254299,-4.3472023
31.94054,-59.67528,-5.4796834,30.42554,4.525268,-10.408735,-8.302488,7.670605,-13.888367,10.836825,-6.755948,15.364203,3.8763149,3.1394954,-14.365636,-2.6621406,0.9836733,-12.909914,-1.9545417,2.939151,-0.18382166,-0.5158667,8.8661,-18.034687,-1.1341506,0.45384145,-7.5213504,-4.953653,0.06769042,-3.329422,-4.7903166,15.906377,-14.821599,-3.9837892,0.15303077,-7.900469,-1.2438455,-3.3113928,-9.901593,-22.673132,17.538692,-5.61752,10.194825,9.767204,-0.80804235,-4.94082,4.7441816,-12.047942,-0.24584064,-5.4444747,-4.27852
31.087471,-58.45232,-7.1657033,29.928356,4.406026,-10.925776,-8.02358,7.1343102,-15.507675,10.002365,-6.9264517,13.483773,4.0331845,2.6894686,-17.769701,-2.47327,0.7479528,-15.155809,-1.7244381,2.6281097,0.29546863,-0.27606928,9.220103,-20.873207,-1.1388532,0.4290286,-8.123267,-5.1785917,-0.14234988,-3.0551379,-5.009517,16.155249,-17.526695,-4.3938184,0.20733292,-8.743139,-1.3539517,-3.3752074,-10.418569,-22.115007,16.728485,-5.4129667,10.475892,9.422179,-0.93514067,-4.156356,4.579643,-10.308768,0.048112083,-5.2371893,-2.5672164
33.298084,-61.24235,-6.8787155,31.066345,4.424505,-10.962736,-8.642897,8.130884,-15.804428,10.734435,-7.0138583,14.020764,3.8282082,3.3934214,-14.322941,-3.0254538,0.99423176,-13.124783,-1.8447753,3.0735798,0.5499597,-0.5130203,9.6699,-18.343565,-1.5966506,0.44454533,-7.9830637,-5.3580413,0.20563422,-3.1964808,-5.259145,17.023018,-15.080808,-4.0636225,0.1725552,-8.880183,-1.2096671,-3.0565505,-10.047061,-23.558542,17.847406,-6.191856,10.483885,11.002696,-1.5328106,-5.1624403,5.0367155,-11.835485,-0.2010243,-5.6989403,-3.674488
32.673546,-60.914192,-6.6614413,31.065454,4.860538,-10.600849,-8.526012,7.7714458,-15.333798,10.69128,-7.1269283,14.362553,4.174062,3.135192,-15.575521,-2.7363975,0.99811786,-14.58853,-1.9552348,2.9305897,0.4208143,-0.5938581,9.907857,-19.070492,-1.2790903,0.49952796,-7.8952837,-5.309475,0.13608153,-2.9914913,-4.9023995,16.470524,-16.035786,-3.810728,0.28092754,-8.676267,-0.94747615,-3.258229,-10.309915,-23.205564,17.785658,-5.7387824,10.392942,9.941188,-2.6353111,-5.135651,5.0009756,-12.654175,-0.38799682,-5.580163,-3.5178246
33.44012,-61.001595,-6.055674,31.672543,4.535954,-10.858445,-8.53703,7.63221,-13.122388,10.33282,-7.059779,12.781631,3.9791896,4.0951757,-12.5606365,-3.2777722,1.0865012,-15.118054,-2.2316566,2.573247,-2.3455431,-0.0929947,9.856449,-16.928421,-1.228504,0.68109906,-8.743027,-5.3303795,0.35695264,-5.3557725,-5.892935,16.607302,-12.392379,-4.079116,0.4690585,-8.709438,-1.5656396,-3.3423285,-10.672221,-23.293917,17.915436,-6.0044494,10.303236,10.753051,-0.59354186,-4.998264,5.58637,-14.157397,-0.14133307,-5.493483,-7.1698384
36.725403,-64.768036,-13.819235,32.203728,3.3178499,-13.578067,-8.364903,8.68724,-21.603327,8.683955,-7.8492,-2.9152236,4.417934,3.2461362,-33.215893,-2.6582851,0.7145578,-49.36557,-1.0699868,2.5075777,-22.49743,-1.027,10.054067,-42.04572,-1.3598615,1.2564819,-46.57718,-6.2455997,0.6660601,-21.857677,-3.733415,15.97415,-38.430035,-5.5063353,1.2962648,-45.9105,-1.9731046,-3.4790168,-27.144377,-23.251848,19.143848,-6.9956713,9.507724,10.164961,-8.018995,-5.8150387,5.2637954,-21.077095,-0.8560953,-5.4746695,-11.131586
32.10262,-58.82021,-6.4189234,31.2078,6.6083326,-8.726293,-8.706526,7.6969237,-10.294819,10.593451,-8.035206,18.546982,4.824431,3.6681032,-27.569304,-2.4135423,0.6811493,-32.014538,-1.1688861,2.8741639,-9.885486,-0.9416007,10.695076,-28.052794,-1.9253887,1.0662137,-26.81194,-5.7334766,-0.4003467,-10.604084,-4.909808,14.581215,-23.398993,-4.3953695,0.44632787,-21.849693,-1.5395367,-3.092053,-15.665619,-22.825747,17.678402,-5.8393493,9.885856,8.371501,-7.5525866,-5.3300767,5.6643405,-19.61001,-0.5936727,-4.9588547,-7.2700973
34.08561,-61.21254,-10.023892,31.69862,6.525911,-10.12417,-8.281252,7.969764,-13.443975,9.7556305,-9.091417,12.985807,5.4015393,3.914644,-36.438377,-2.3961904,0.3984729,-46.808197,-1.1033702,3.3486807,-17.25074,-0.6168211,10.371645,-38.682304,-1.7464592,1.5768012,-42.407402,-5.786639,-0.34739172,-18.281738,-4.5240045,14.554411,-34.01999,-4.692575,0.3435737,-36.653957,-1.6510286,-2.8013265,-23.254644,-23.239096,18.449211,-6.807609,10.3224125,8.018427,-9.917918,-6.027726,5.314766,-21.63603,-1.1695815,-5.0093403,-12.043598
33.847603,-60.49935,-7.3033347,32.113087,9.796621,-8.567245,-8.727006,8.225945,-10.373483,10.086082,-8.382031,11.078712,4.397493,4.1688905,-36.53717,-2.9083185,0.53473353,-55.105576,-1.089539,2.4457974,-27.23625,-0.72209346,9.746119,-40.81154,-1.6335369,1.2607374,-50.39808,-6.217286,0.7361069,-27.146257,-3.426962,15.031569,-36.11877,-5.0184484,0.6557288,-47.047604,-2.1768246,-2.8055713,-31.92268,-22.915035,18.591984,-7.0435486,9.256746,6.8091836,-20.023363,-6.43667,5.9827332,-42.467777,-1.76913,-4.486595,-26.537582
32.471783,-57.932137,-4.693233,31.281197,9.081933,-7.4145346,-8.151347,7.9057865,-8.042392,9.55513,-8.9553995,12.942316,4.7248325,4.0353365,-28.9151,-2.102806,0.12971997,-45.054764,-0.84372663,2.924883,-23.183825,-1.2467871,9.77415,-31.518589,-1.7499214,2.005881,-39.71754,-6.0286994,0.4669016,-22.541544,-4.7405744,14.061257,-25.05195,-4.3390203,0.45315272,-32.70339,-2.2312772,-2.4208195,-25.556534,-22.536087,18.211092,-6.516399,9.743435,7.3476243,-13.421746,-6.1980124,5.9199343,-32.090824,-1.5414491,-4.148264,-21.409267
32.245598,-56.069557,-9.839162,29.361166,9.269572,-7.5012407,-8.033665,7.221652,-8.14977,8.857145,-6.9921203,4.3549266,4.743773,3.2415361,-50.964035,-2.1167934,0.5058692,-84.84707,-0.11352911,2.3162646,-49.799545,-0.84814835,9.9194,-54.62466,-1.5523679,1.030515,-80.89255,-7.9225154,1.3770081,-44.965446,-3.526813,13.389029,-52.69206,-4.967067,1.3502843,-80.06666,-2.5328665,-1.4464157,-48.54693,-21.820095,15.977127,-5.500826,7.7594156,3.9838524,-35.88864,-5.63042,6.2432485,-63.7297,-1.9506941,-3.9159534,-38.444885
32.33692,-56.18042,-12.11824,27.688313,4.3865767,-9.228445,-7.2184434,6.478476,-13.362463,7.179524,-7.9256487,-5.003724,4.759824,3.7445471,-47.32764,-1.8604051,0.18326743,-89.137146,-0.10045553,1.8196048,-53.637913,-1.1669836,11.132399,-51.866814,-1.7624007,1.1366129,-88.68287,-7.548687,1.3049636,-47.661205,-4.7262797,12.705405,-46.651005,-4.6265926,1.407285,-77.59763,-3.7119703,-0.9672375,-46.97864,-21.8889,17.263533,-6.4105167,7.732879,4.7844033,-20.58758,-5.5246615,5.7579474,-40.8653,-1.1147015,-4.280484,-25.866459
44.990467,-73.284836,-38.397198,34.940117,-4.8030376,-16.070457,-9.2970495,7.7396636,-45.896656,7.934233,-7.549751,-36.441162,6.546248,8.804397,-56.09013,-3.3885298,0.78432447,-101.375084,-1.3067648,4.5157495,-52.36264,-0.06259874,13.455925,-76.65592,-1.7537676,0.33604786,-126.210205,-9.777885,1.3100649,-60.751686,-3.671923,16.497572,-76.67438,-5.8812423,2.7971742,-111.37137,-5.68472,-1.5634724,-57.61123,-25.606138,20.450891,-8.517284,10.745374,6.333998,-14.277325,-6.967669,5.526352,-21.9256,0.26363307,-5.368487,-8.266788
45.404263,-71.68413,-35.643112,33.049503,-5.123588,-15.089481,-8.09238,7.690231,-45.437065,8.039086,-6.6850767,-41.582733,6.153867,8.673398,-57.835888,-3.1215498,0.19945578,-113.655,-0.5578173,3.6589632,-62.078526,-0.64814085,11.31522,-69.81678,-2.1251638,0.11517157,-112.75393,-9.807535,1.80764,-58.56853,-4.888196,16.577065,-68.07845,-5.2701497,1.3347718,-106.02708,-4.1669254,-1.5517672,-56.53302,-25.169067,19.350142,-6.6378555,10.645846,6.698969,-10.296465,-5.1622596,5.4492188,-11.816235,-0.11573611,-6.1171103,-6.663135
46.016582,-70.98113,-36.24782,32.762413,-5.6353474,-16.79163,-7.785675,7.833082,-49.471016,7.197416,-5.3966594,-49.488205,5.9051886,8.028627,-58.55734,-3.248043,0.58757234,-113.42362,-0.8516558,2.8753192,-65.86907,-0.7403672,10.906031,-72.00634,-1.7267932,0.8742953,-115.42607,-10.507188,2.450874,-59.711796,-5.9653726,16.864569,-70.68235,-5.712196,1.3817254,-108.42124,-4.505949,-2.0010028,-57.64813,-25.129906,18.787037,-6.393299,10.7814865,6.749874,-8.878406,-5.4487557,4.8163414,-5.623079,0.30490264,-6.100079,-0.21314856
43.446632,-67.13047,-33.03282,31.694687,-4.340721,-15.592064,-8.167051,7.05752,-42.95893,7.1176963,-5.3068004,-39.57821,5.5970283,7.396508,-59.004284,-2.8350942,0.44521308,-106.76555,-0.44732872,3.0926225,-56.85854,-0.7931809,10.456743,-70.889824,-1.555475,0.86681765,-105.40192,-9.652574,2.0462315,-52.260696,-4.7837214,15.735073,-68.605446,-5.05476,1.6484717,-100.424904,-3.9589276,-2.2210407,-51.758144,-23.806114,17.757193,-5.7176023,10.167043,7.1669793,-7.4411597,-5.006571,4.5637755,-6.1190753,0.38577035,-5.699239,-1.6604548
41.461357,-64.68301,-31.685812,30.723875,-3.8616807,-15.393883,-7.496077,7.6293607,-39.866474,6.965412,-5.4174724,-38.016365,5.810421,7.6829844,-57.847622,-2.6585786,0.5760024,-103.51703,-1.0780554,3.031854,-56.82106,-0.6193031,10.845175,-69.75875,-0.4969511,0.9696944,-106.778404,-9.672646,1.8289665,-53.046524,-4.9146333,16.059546,-66.96454,-4.836767,1.4526117,-97.4261,-3.9227605,-2.1496127,-51.277348,-23.301054,17.374804,-6.3353148,10.141432,6.5538154,-8.289383,-4.8569326,4.292815,-4.6532454,-0.018380743,-5.5229445,-0.7663593
45.297165,-69.68939,-35.738934,32.510387,-4.8822546,-16.985476,-7.8449483,7.8914585,-46.26799,6.8524714,-5.513687,-49.675076,6.057469,7.4010773,-60.213333,-2.8085246,0.9549747,-113.69458,-0.8516425,2.6189892,-68.478874,-0.39393064,10.824769,-73.65441,-0.7592564,1.2679439,-117.458336,-10.4521885,2.3813283,-60.26473,-5.388149,17.049385,-72.1231,-5.5683775,1.6886989,-108.73573,-4.3971033,-2.169062,-58.020992,-25.05001,18.904274,-6.290457,10.3498745,7.398977,-9.618336,-4.9435034,4.818907,-3.8324347,-0.060919542,-5.9894886,1.4922053
43.0856,-66.59465,-34.475574,30.871983,-4.4733734,-16.048027,-7.403665,7.2868156,-43.231346,6.5592213,-5.740507,-48.35153,5.6043973,6.9885325,-58.409676,-2.5502992,0.79006517,-110.9104,-0.8984312,2.2775328,-68.31411,-0.22287498,9.959696,-70.217384,-0.6901251,1.0564456,-113.131226,-10.187158,2.3984325,-59.112354,-5.1132236,15.7958975,-68.81062,-5.243542,1.5593286,-104.70879,-4.32207,-1.8495092,-56.346004,-24.086517,18.06565,-6.062437,10.076976,6.9377437,-9.781481,-5.0316005,4.5818563,-4.3050294,0.21367946,-5.811622,0.49275172
42.91621,-66.29153,-33.73002,31.184326,-3.824957,-15.634238,-7.3180037,7.7024035,-42.29351,6.831121,-5.593408,-43.846775,5.977334,7.440265,-58.325924,-2.3519638,0.81033456,-106.96987,-0.68522173,2.6175704,-62.99112,-0.30695182,10.778356,-71.42548,-0.55864364,1.2038301,-113.11277,-9.897416,2.1893475,-57.269466,-4.910404,16.349771,-69.60653,-5.016627,1.7869698,-102.588394,-4.171504,-1.9492893,-54.859398,-23.589663,18.2068,-6.296037,9.899746,6.583078,-9.285471,-4.7314835,4.4481864,-4.8091736,-0.29404646,-5.592802,-0.06550841
40.991817,-63.56574,-31.37162,29.415014,-4.1236997,-14.728924,-7.1189313,7.0034504,-39.226566,6.7816787,-5.5469446,-41.39298,4.9853334,6.8641305,-55.890015,-2.4303253,0.6771541,-104.85659,-0.47834018,2.8180618,-61.399708,0.0459156,9.635774,-66.71963,-1.3135985,0.6611209,-105.03719,-9.357418,2.0234365,-53.865833,-4.7657886,15.144502,-64.11878,-4.470663,1.552225,-97.33865,-3.886723,-1.741618,-52.123585,-22.713367,17.458218,-5.837193,9.532911,6.4038744,-9.281678,-4.3715363,4.727108,-5.73771,-0.1794663,-5.4694214,-2.03673
43.495777,-66.84864,-33.88399,30.598494,-5.2857475,-16.731129,-7.0258765,6.9096103,-43.779945,6.317733,-5.7083464,-52.738415,4.868233,6.108053,-60.868874,-2.7649946,0.8833237,-115.929184,-0.66654015,1.9715376,-73.04555,0.43758804,9.3227415,-69.97571,-0.6819824,0.8667763,-112.23687,-10.088324,2.723102,-59.132553,-5.1923018,15.858028,-68.324554,-5.2429476,1.446949,-105.41817,-4.678019,-1.786816,-57.143852,-24.551428,18.105299,-6.0199776,10.077365,6.3525686,-9.300613,-4.786271,4.177911,-0.49700227,-0.11947085,-6.2470527,1.0812743
42.83149,-66.85044,-33.122597,30.367762,-5.314556,-16.392904,-7.3898015,7.036065,-43.51369,6.2604117,-5.4871845,-50.41466,5.1570683,6.2088656,-56.29283,-2.896294,0.76650363,-111.53031,-0.7897124,2.3540072,-70.180595,0.07851943,9.803118,-68.81813,-1.1991419,0.68848,-111.020325,-9.956468,2.7964933,-58.82888,-5.2179613,15.803317,-66.792,-5.1534605,1.7785051,-103.79632,-4.105889,-1.5421435,-57.00056,-23.966917,18.182472,-6.04957,9.751854,6.7542615,-10.648199,-4.955149,5.0949225,-5.6289496,0.0383655,-6.211659,-0.3997389
41.87611,-65.36882,-31.560486,29.484268,-5.5509872,-16.345015,-7.1842737,6.593676,-42.076366,5.6950307,-5.6176414,-51.323273,4.4766884,5.7669806,-57.8189,-2.9737153,0.6366613,-111.93069,-0.6275302,2.2022645,-70.58382,0.21184127,9.258281,-66.9896,-1.0012162,0.43208337,-105.897995,-9.554175,2.8202472,-56.77315,-5.3598003,15.316819,-64.79731,-5.2919617,1.2556809,-100.123726,-4.44117,-1.3720175,-55.21683,-23.51759,17.67032,-5.944341,9.792397,6.4430604,-9.190028,-4.714617,4.45554,-1.5303967,0.14349659,-6.4938884,-0.5679461
47.0516,-71.864426,-37.571102,32.910442,-5.346776,-18.200014,-7.70118,7.3804293,-48.453663,6.562687,-5.9058666,-57.44112,5.5415726,7.0998054,-65.10875,-3.0826828,1.0676934,-123.51519,-0.74435455,2.0981998,-77.36584,0.27170396,10.280858,-76.45674,-0.66592056,1.168595,-120.86939,-11.068748,2.977987,-63.49827,-5.392152,17.192812,-75.241,-5.9066267,1.7189796,-114.41434,-4.9433355,-2.0142012,-61.112984,-26.010057,19.374687,-6.415895,10.621919,7.5788074,-9.953861,-5.184535,4.380322,-0.42668,0.11473669,-6.7578444,1.9963834
39.231773,-60.947662,-30.375534,28.773968,-4.6921206,-14.779695,-6.729273,7.1819553,-39.016483,6.3469553,-5.017098,-40.006954,5.1745596,6.8567667,-52.169445,-2.3549438,0.6819983,-96.80146,-0.34763032,2.5263872,-56.179123,-0.16090019,9.607251,-63.96704,-0.9920341,0.7466122,-97.73528,-8.96772,1.7411432,-50.00145,-4.5240254,15.03864,-61.743214,-4.525731,1.5297799,-92.95361,-3.3746672,-2.0433395,-49.156734,-21.843071,16.761856,-5.50794,9.463489,6.5561585,-9.643371,-3.968486,4.750023,-6.107211,-0.111046195,-5.113005,-0.9831751
43.17756,-66.35571,-35.01062,30.71412,-4.654743,-16.511366,-7.071436,7.6234207,-45.10823,6.268725,-5.618737,-50.717976,5.376203,7.6214113,-56.901085,-2.6975524,1.017343,-108.81031,-0.6638802,2.0795608,-67.68507,0.026921622,10.251974,-69.51123,-1.1188805,1.0421522,-110.62933,-10.010344,2.4574065,-57.86071,-4.978898,16.231802,-68.36181,-5.229511,1.9542987,-104.62893,-4.066265,-1.9692891,-55.64219,-23.886837,18.51989,-6.1197,10.537093,6.9643383,-10.962534,-4.680773,4.625243,-5.074528,0.038584724,-5.763763,-0.056638047
41.496193,-65.9963,-32.1134,30.20174,-5.895552,-16.436483,-7.103872,7.7401915,-43.20711,6.0765557,-5.7045283,-50.691925,5.3589044,6.3947268,-53.593533,-2.8726873,0.76311326,-104.98471,-0.36538568,2.354232,-67.76221,0.1775803,10.122004,-68.319405,-1.1464386,0.8807117,-107.57614,-9.823188,2.804076,-57.78192,-5.0624714,15.413072,-65.62387,-5.4015207,2.0938685,-101.11489,-3.9525132,-1.4293435,-55.632866,-23.10528,18.529707,-6.7374372,9.991114,6.406489,-12.54093,-4.7632904,4.9877334,-7.427223,-0.25062993,-5.786965,-2.772299
44.466785,-68.62506,-35.74896,31.50799,-5.106465,-17.091265,-7.276881,7.5864716,-46.674572,6.2031374,-5.843515,-54.438396,5.65581,7.487682,-59.41937,-2.8329968,0.93477213,-113.39437,-0.6790657,2.2613661,-71.465,0.20866549,10.212763,-72.17892,-0.69626576,1.1837144,-115.72194,-10.492883,2.6636634,-61.0897,-5.218104,16.630451,-70.901085,-5.6311946,1.8090943,-107.68157,-4.6053495,-1.9401234,-57.99452,-24.402685,18.940361,-6.6985974,10.387307,6.9550123,-10.194669,-4.984909,4.375336,-2.6300375,0.0981852,-6.358668,0.8078877
39.67652,-61.19964,-31.391048,29.207335,-4.255493,-15.0980015,-6.880639,7.131302,-40.47618,5.985807,-5.05652,-41.877945,5.337135,7.315133,-53.598255,-2.4380038,0.5979761,-98.00439,-0.5317768,2.3911963,-56.685085,-0.3294463,9.648951,-65.116776,-0.62928563,1.178712,-99.00733,-8.93595,1.8326116,-50.43497,-4.4129996,15.169967,-63.4447,-4.6298075,1.6822215,-93.76681,-3.6109757,-2.3150766,-48.97696,-21.607044,16.74463,-5.528057,9.318268,6.7240067,-8.763964,-4.288099,3.8723693,-4.1658382,0.27667475,-5.1127396,0.14596012
45.6857,-71.52645,-35.747204,32.14874,-5.666128,-17.781017,-7.716942,7.37767,-46.68045,6.244972,-6.360441,-57.77697,5.6058583,6.7082663,-63.127773,-3.0100296,0.91739863,-122.08709,-0.5713989,2.0869317,-79.077614,0.3974805,9.844496,-74.028046,-1.0624584,0.8404455,-120.28685,-10.628158,2.9935415,-64.95206,-5.3870463,16.428326,-72.559044,-5.6471887,1.8893145,-111.94752,-5.0999923,-1.4540591,-61.8631,-25.791706,19.734749,-6.877161,10.632149,6.8821774,-11.195469,-5.232718,4.6594,-2.3760624,0.18725632,-6.8155923,-0.41066265
41.0897,-64.23869,-32.715908,29.565226,-5.2058144,-16.248209,-6.7978153,7.6602573,-43.317673,5.853227,-5.3460817,-51.242092,5.3514886,6.6093674,-55.147423,-2.766939,0.9652247,-104.84149,-0.35129383,2.028674,-67.21223,0.2805501,10.01924,-68.42906,-0.74358594,1.2429415,-106.93653,-9.837645,2.7725544,-56.715004,-4.5848227,15.588283,-66.412415,-5.175146,2.1471066,-100.65569,-3.7929044,-1.5731499,-54.28982,-22.840738,18.032598,-6.198244,9.805313,6.330619,-11.759782,-4.514998,4.2752786,-4.3143835,-0.057135697,-5.760497,-0.8063329
28.624046,-55.547344,-2.3196728,29.481133,-1.3003664,-11.471334,-7.8596697,7.877346,-11.265768,8.782877,-6.308674,-2.3819253,4.194861,4.5724525,-2.800663,-1.5346258,0.47958496,-18.443544,-0.38122115,2.788536,-13.396221,-0.7717435,8.009478,-7.744539,-0.8367887,0.4581099,-17.939192,-6.736134,-0.021528427,-15.252209,-5.917312,15.115747,-3.3521225,-3.6337428,0.8214194,-12.129631,-2.0107934,-2.4674437,-13.872163,-21.948833,15.198284,-5.0793486,10.544813,11.712658,3.3836818,-4.073585,5.6954246,-11.453201,-0.45074952,-5.280553,-8.386666
27.952793,-58.121426,0.41691238,28.147924,-4.0583587,-15.263816,-8.786763,7.180844,-11.758223,9.003875,-6.212325,-5.2665114,3.5472162,1.6375365,0.30884925,-2.7821932,1.2443212,-17.848806,-0.80140275,3.085676,-15.437821,-0.5504378,7.8617897,-3.82734,-1.6672708,0.5470182,-5.5213237,-6.0588717,-0.4534559,-8.08711,-4.6461053,14.318275,0.19857046,-3.6268892,0.5549953,-9.614545,-0.76060766,-2.5463893,-9.130124,-22.580675,15.842241,-5.9036446,10.284043,14.762384,13.654339,-4.4983277,4.782885,-13.942388,-0.92673635,-6.219329,-10.206749
30.38969,-58.524857,-3.8313673,28.90877,0.7523679,-13.170011,-9.382913,8.153826,-12.981825,9.916286,-6.8526297,4.0050526,3.359504,2.9839246,-8.545626,-2.25666,1.0093356,-12.9695215,-1.2110009,2.3570535,-7.058775,-1.458316,7.57941,-11.730133,-1.1331227,0.93859667,-7.543714,-6.1354685,0.46390188,-6.097873,-4.4305696,15.921107,-10.160165,-3.5672436,0.22011574,-10.993529,-1.327275,-3.6788254,-8.902124,-22.45356,17.606579,-5.2932916,11.651423,13.871713,6.0772033,-5.578763,4.788588,-10.937504,0.30703112,-5.5120187,-6.9680624
31.668821,-61.70861,-2.5521958,31.42164,1.8745182,-12.717175,-9.229081,7.868044,-10.932431,10.701132,-7.1028557,13.43443,3.9473343,2.7166724,-7.232635,-2.6483119,0.9443012,-10.471962,-1.5032599,2.6673565,-4.3142753,-0.7087395,8.44989,-10.771682,-1.5602553,0.6075352,-6.1971335,-6.2593975,0.3513005,-5.031267,-5.607216,17.130808,-9.992414,-3.923071,0.42218423,-7.6318727,-1.1119902,-3.1980274,-8.694516,-24.577621,17.973314,-6.0981064,11.483507,13.475887,5.2799234,-5.296361,4.792045,-12.1055975,-0.1189999,-5.621104,-7.911932
33.33336,-63.690933,-4.0999036,32.658962,3.1238828,-12.661195,-9.107536,8.132491,-14.225408,10.9123125,-7.218753,14.032796,3.8093793,2.6049948,-9.812554,-3.093993,1.1222912,-9.83798,-2.0635486,2.8577476,-2.4761443,-1.0851502,8.308739,-13.635783,-1.7730691,0.39923614,-4.930957,-5.831234,-0.004964877,-3.8363192,-5.250753,17.46765,-12.301295,-4.8744264,0.39910883,-7.5893197,-1.1289363,-3.5924692,-9.05686,-24.870495,18.535315,-6.070911,11.153691,13.751029,4.4815383,-5.0102124,5.5625725,-11.369436,-0.31695214,-5.690092,-6.090772
31.716473,-60.585716,-3.3324919,30.818098,2.9354806,-11.509235,-8.82791,8.065056,-11.805272,10.7346115,-6.9027343,14.785268,3.8879902,2.9227047,-8.699369,-2.833187,1.1179125,-9.262837,-1.7469058,3.0049894,-1.7535908,-0.54439896,7.9634533,-12.2258215,-1.5027002,0.32344204,-5.330777,-5.357095,-0.028185364,-3.7902145,-5.043936,16.62516,-10.904234,-4.0905395,0.34248668,-6.1541386,-1.0166637,-3.3237903,-8.642961,-23.277088,17.608347,-5.7368436,10.603729,12.370198,2.4034746,-4.6565475,5.0233283,-9.476548,-0.33589408,-5.582056,-5.5501304
34.398876,-63.172306,-7.0035806,31.87332,1.4601465,-13.450922,-8.339292,9.210322,-16.654396,9.528396,-6.9605994,3.4363337,4.4849715,2.7815619,-9.678452,-2.6675897,0.79345655,-18.08042,-0.7302316,2.3406274,-9.36759,-1.3854603,8.722241,-18.14891,-1.8253015,1.0748701,-17.64176,-6.197551,1.0861295,-9.669804,-5.403906,15.604406,-17.519243,-3.9542713,1.5907089,-19.317257,-2.0717657,-3.3249674,-15.021782,-23.555836,18.067297,-5.671187,10.106454,12.199049,-1.2341161,-4.9832244,5.21764,-14.289823,-0.7573184,-5.3615737,-4.5257335
29.938522,-56.88461,-4.31887,29.05221,3.4863634,-10.552302,-8.400445,7.36457,-11.910929,9.823646,-6.4953036,13.507818,3.7002935,2.813562,-9.585659,-2.812415,0.8000497,-10.174184,-1.8211596,2.8190093,-0.22514582,-0.5985148,8.241038,-13.022577,-1.3854783,0.45013073,-5.588519,-5.058545,0.06545645,-2.862859,-4.7833257,15.623894,-11.423886,-3.7622473,0.3253398,-6.069005,-1.0238187,-3.1130812,-8.21577,-21.786661,16.459776,-5.6734033,9.57447,11.219381,0.4621113,-4.673442,4.4393783,-9.806565,-0.053601246,-5.44765,-4.585951
32.191505,-61.09845,-4.751507,31.255812,3.654149,-11.284871,-9.110941,7.8976684,-11.917846,10.685158,-7.014787,15.659225,3.7992504,3.114875,-10.088025,-2.8261125,0.5832385,-10.529727,-1.7800237,2.8817012,-0.20041236,-0.9273574,8.58686,-12.727309,-1.6121858,0.69337523,-4.955569,-5.3456955,0.055687536,-3.333346,-4.9754796,16.593233,-12.449939,-3.9854155,0.3379941,-6.4833565,-1.0257655,-3.3805547,-8.942228,-23.33458,17.97046,-5.7106853,10.562689,11.872146,-0.45320332,-4.855086,4.7619348,-9.647549,0.044509914,-5.5142026,-4.366814
31.941853,-60.65663,-4.369637,30.86387,3.5495822,-11.498989,-8.744146,7.9705358,-12.346661,10.647199,-6.7272577,15.085719,3.7794538,2.8727598,-10.281915,-2.9313464,0.8596538,-10.053443,-1.6881062,3.0436065,0.5224293,-0.607907,8.956508,-14.302213,-1.5024356,0.297012,-6.696934,-5.446304,0.111778334,-3.3722284,-5.039779,17.038982,-12.713569,-3.9532835,0.44518137,-6.8919563,-1.0688877,-3.2241027,-8.929843,-23.274214,17.46011,-5.965064,10.463864,11.905793,0.9649642,-4.932674,4.798414,-10.682329,-0.096019045,-5.574088,-4.8981543
31.242308,-56.171967,-8.4399185,28.712904,2.0355752,-11.436592,-7.5837655,7.5564938,-13.955021,8.945226,-6.5016394,7.7355275,3.1160266,3.1201248,-16.837471,-2.2560587,0.65416104,-19.76408,-1.4959544,2.1346679,-2.8316534,-0.1948846,7.9630647,-19.954044,-0.94532835,1.0840423,-13.669342,-5.123728,0.0021826923,-5.1903343,-3.8147616,14.340106,-17.411621,-3.9349828,-0.03218928,-16.072279,-0.8380358,-3.9171937,-9.429156,-21.150621,16.303932,-5.5517254,9.6493,9.960072,-0.32492185,-4.4530945,3.7021418,-6.6936803,0.10931811,-5.372246,-1.7623491
33.0882,-58.07861,-9.16536,29.86083,2.0051792,-12.62016,-7.883875,7.9661093,-16.425406,9.7332535,-5.784933,1.1579094,3.965862,4.1245165,-13.893064,-1.6000036,1.0309564,-21.064184,-1.6165881,1.8288747,-8.542707,-0.28660408,8.562069,-18.60034,-0.6985658,1.6066626,-15.599095,-5.4761553,1.0965157,-8.063833,-4.888928,15.009396,-15.2069435,-4.1082463,0.2179073,-15.559979,-1.6096888,-4.2426414,-11.415711,-22.098433,16.833286,-5.1402,10.314547,10.830291,0.9065852,-4.0718284,4.4760084,-3.9374247,-0.24562171,-5.4845037,-1.111484
33.061203,-60.76193,-5.4101396,31.058413,3.5891585,-11.530363,-8.551066,8.090672,-13.541561,10.566758,-6.566557,12.22546,3.7002668,3.3352587,-11.484733,-3.0720072,1.0029912,-13.209447,-1.7420459,2.6195133,-1.4433019,-0.20650804,9.517181,-16.045937,-1.1541556,0.70402557,-7.8193226,-5.3574147,-0.06475128,-4.4452524,-5.467189,16.991285,-12.37422,-4.0296316,0.6187801,-7.1573043,-1.2648984,-3.1511922,-9.80451,-23.145094,17.67278,-5.7837386,10.276866,11.043549,-0.1779828,-4.3853803,5.403666,-9.622261,-0.27819192,-5.852174,-4.6425686
30.811874,-58.17738,-6.705657,29.61695,4.0773997,-10.226847,-8.54774,7.6527143,-12.321776,10.444465,-6.8856053,15.3192215,3.5989347,3.1550775,-14.281271,-3.2491884,0.6323495,-11.532876,-1.8275139,3.1203256,1.9199185,-0.528035,9.019806,-18.573467,-1.3046136,0.38467205,-9.389834,-5.7487125,-0.33647594,-3.297315,-4.6309495,16.249073,-15.7941675,-3.5524204,0.051793918,-9.417957,-0.71667343,-2.912277,-9.54365,-22.446602,16.415874,-5.291907,9.591693,10.145759,-2.429733,-4.5193095,4.653071,-11.327282,-0.119677514,-5.411892,-2.506896
31.939995,-59.763306,-6.58683,30.514717,3.5341182,-11.270796,-8.386342,7.8431406,-13.090239,10.137472,-7.3792887,12.664703,3.5652256,3.1278071,-15.80716,-2.9635072,0.74659777,-14.444883,-1.9062586,2.6834414,-0.35994336,-0.51666063,9.243052,-20.03462,-0.6204754,0.5528907,-10.569572,-5.67084,-0.24840327,-4.5231924,-4.6858854,16.616713,-16.768942,-4.182284,0.009360112,-11.170736,-1.2007419,-3.790409,-10.032335,-22.422201,17.168053,-6.0215993,10.067424,10.898227,-1.0019767,-4.520342,4.7521486,-9.68879,-0.015561327,-5.900651,-2.5253386
33.209694,-62.064564,-6.3928466,31.834917,3.937664,-11.087021,-8.624367,8.455934,-13.17563,10.9844,-7.176327,14.9023075,3.894211,3.4956026,-14.719157,-2.947133,1.0724198,-14.86698,-1.9251413,3.0173273,-0.9096691,-0.5034715,9.641705,-20.050196,-1.26626,0.61540467,-11.883646,-5.568565,0.030252336,-5.1615143,-5.2382555,17.001793,-15.528665,-4.3287897,0.092978135,-11.076108,-1.18371,-3.3151371,-10.778385,-23.75613,18.130209,-6.1097574,10.480833,10.214164,-1.5390339,-4.6425586,5.0795,-11.980323,-0.3522223,-5.8200192,-4.844044
33.626095,-62.235985,-6.6594872,31.343855,4.2709312,-10.979225,-8.940307,8.299062,-13.835559,11.274243,-7.088215,16.89675,3.8589847,3.2711325,-14.711052,-2.858244,0.76278347,-11.710601,-1.9117706,3.2398846,1.0444535,-0.7397627,9.386977,-18.499788,-1.4560071,0.60338956,-8.689507,-5.4624376,-0.029442746,-4.0320325,-5.4369335,17.067038,-15.715563,-4.3094087,0.0030280948,-9.049793,-1.1318018,-3.2223935,-10.401991,-23.884254,18.114542,-6.1215687,10.730979,10.667326,-1.797381,-4.9382486,5.280409,-10.315171,-0.03637464,-5.80468,-3.8150182
32.74597,-60.204376,-6.5800786,30.942587,4.539929,-10.227622,-8.634417,7.812674,-13.699293,10.776943,-6.562174,14.96469,3.914593,3.522197,-12.654946,-3.0224767,0.9963574,-11.9447155,-2.0278065,3.102478,0.66017115,-0.42873433,9.42724,-16.69047,-1.4760443,0.60231584,-8.316285,-5.313261,0.119938985,-3.9819715,-5.3117805,16.440523,-13.674963,-3.930413,0.29719347,-7.9673924,-1.0632422,-3.1320808,-9.764156,-23.286715,17.450617,-5.918307,10.101064,10.159652,-1.8245143,-4.8449783,5.0735173,-11.710831,-0.122020125,-5.595387,-4.7466273
32.766773,-60.931824,-7.688898,30.800127,3.793507,-11.03317,-8.381716,7.692501,-14.862053,10.470381,-7.0281982,14.21919,4.018874,3.401961,-16.921688,-2.4168248,0.813075,-15.495977,-1.3776367,2.9035904,0.32713518,-0.3713633,10.21313,-20.364483,-1.3987654,0.5899997,-8.9942465,-5.2085648,-0.14497261,-3.949804,-5.3158712,16.986853,-16.740038,-4.3935432,0.27525175,-9.727417,-1.3673196,-3.167849,-10.657099,-23.110497,17.67023,-6.1321354,10.671128,9.947165,-1.6526675,-4.616622,4.9188614,-10.611342,0.41399616,-5.6872478,-3.3571923
33.36333,-61.291,-7.300343,31.37857,4.597266,-10.882626,-8.306582,8.236532,-15.447163,10.6807,-6.674337,12.949044,4.1593895,3.7074437,-15.237586,-2.691149,1.0815954,-15.503084,-1.8738809,2.8071249,-0.6135379,-0.394518,10.506696,-19.675035,-1.1140857,0.5307097,-9.154303,-5.254324,0.10763231,-3.9342372,-5.496857,16.675737,-15.157246,-4.299196,0.6604822,-9.086746,-1.2839155,-3.2736764,-10.764832,-23.321741,17.851662,-6.072762,10.607122,10.392785,-1.7684693,-4.884485,5.35212,-11.814075,-0.29978603,-5.5476813,-3.9708717
33.34944,-61.17311,-8.864936,31.224041,3.6407382,-11.578561,-8.238598,8.048878,-17.528326,10.398009,-6.3564124,8.982012,4.455224,3.6626365,-16.272804,-2.5576358,0.6914178,-17.551752,-1.96387,2.3526895,-1.9316373,-0.83782214,10.432897,-19.598701,-1.453385,0.6805983,-10.300434,-5.6767917,-0.402771,-5.40964,-5.229289,16.577381,-15.810617,-4.7137694,0.1845868,-10.358782,-1.3403494,-3.5821083,-11.367374,-23.632029,17.563927,-5.6705112,10.807462,10.225552,-1.1942546,-4.348319,5.426882,-9.341656,-0.26538715,-5.666632,-2.9906285
33.42715,-61.37362,-7.5391397,31.35315,4.546091,-11.032847,-8.406062,8.171116,-16.767801,10.495322,-6.8738375,12.96397,4.181283,3.6425357,-14.85952,-2.9087098,1.0328299,-13.743762,-2.0594683,3.2035213,0.95138496,-0.43488732,10.142494,-19.195864,-1.3850708,0.40374258,-7.8452725,-5.163595,0.016369067,-3.372221,-5.250259,17.201612,-15.949464,-4.014012,0.48187697,-8.563043,-1.0691503,-3.3972983,-10.562335,-23.286673,17.654598,-5.961276,10.5304165,10.517646,-1.9993763,-4.9294543,5.292028,-11.434062,-0.48397815,-5.4965706,-3.4277768
33.593132,-61.62138,-8.020914,31.494421,4.483275,-10.73581,-8.34667,7.62399,-16.45607,10.714151,-6.9034123,14.596984,4.2011003,3.2002318,-16.372599,-2.6545382,0.9570037,-14.062408,-1.9262842,3.0488732,0.6131695,-0.52118737,9.765369,-19.581343,-1.6320397,0.55711305,-8.626017,-5.4699297,-0.12765212,-4.081667,-5.3374743,16.757538,-16.730246,-4.382952,0.32648224,-9.485267,-1.4025121,-3.2924955,-10.864921,-23.738047,17.874426,-5.8472404,10.87482,9.653649,-2.3122103,-4.8115945,5.219762,-11.887325,0.08005719,-5.477437,-3.5900593
33.92493,-62.034653,-7.5054264,31.67875,4.972506,-11.013401,-8.303633,8.08577,-16.019867,10.846859,-6.8856316,14.0585575,4.150141,3.5371714,-15.29022,-2.7491794,1.0236869,-13.191985,-1.9319406,3.138422,0.6869778,-0.42753047,9.738977,-19.273052,-1.2999874,0.44161385,-8.1841545,-5.4187264,0.09283784,-3.3372018,-5.1692142,16.90093,-16.132114,-4.11478,0.54829055,-8.636259,-1.3015571,-3.5041585,-10.361088,-23.72116,17.976585,-5.971552,10.718956,10.168266,-1.8839421,-5.0711894,5.092623,-12.381721,-0.2754259,-5.550155,-3.990701
29.92648,-55.463627,-5.2928452,28.3591,3.58971,-10.570948,-7.542814,7.085684,-13.293844,9.34723,-5.84301,10.3201065,3.534692,2.9152408,-10.3291235,-2.6384592,0.94675106,-11.785969,-1.9537635,2.3874407,-1.2966621,-0.23185134,8.655024,-14.461575,-1.0724883,0.62140524,-6.504759,-5.274044,0.031481452,-3.8856714,-5.034335,15.365307,-11.479568,-3.721092,0.77958226,-6.8688936,-0.96862036,-2.981889,-8.705187,-21.348928,16.170965,-5.304929,9.338411,10.200614,0.7542439,-4.25582,4.635447,-11.334211,-0.018250141,-5.364512,-5.4628115
33.96023,-66.1131,-7.3384275,33.664436,3.5880527,-12.692428,-8.9575615,8.519162,-15.253593,10.955555,-7.6358705,14.958303,3.9108756,3.2524207,-17.508793,-3.4751449,0.6671919,-14.034345,-2.1879022,3.7114832,1.4495716,-0.05280786,10.300332,-24.8523,-0.40296364,0.2779386,-13.316874,-5.9470677,-0.3391731,-4.96715,-4.9510565,19.37426,-20.404911,-4.510183,0.22578268,-12.913169,-1.2533227,-3.6300552,-11.419958,-24.721954,18.647425,-6.6657867,10.899477,11.633766,0.6607079,-5.201327,4.7730813,-13.705111,0.2976968,-6.2278123,-3.9675252
34.555077,-61.826237,-10.234402,32.091965,1.5539917,-12.33314,-8.895537,7.5130444,-17.676645,10.221086,-6.0254316,0.33588856,4.626264,4.6829085,-17.971172,-2.1409016,0.35115963,-27.144833,-1.8380724,2.5699193,-11.351915,-0.02299903,9.366681,-20.0355,-0.6963048,1.511579,-20.183723,-6.2731133,0.32115188,-11.434073,-5.474952,15.98282,-16.203335,-4.308417,-0.058629222,-16.587305,-2.5779595,-4.430776,-13.775755,-23.738873,17.26407,-5.581002,10.712835,10.535104,3.5845313,-3.936329,4.8404317,-2.1647854,0.674575,-6.2923956,-0.025197253
31.907682,-59.753845,-6.7928605,30.937235,2.803607,-11.270723,-8.240058,8.030436,-16.017548,10.109017,-5.801059,7.878437,4.745306,3.5160728,-11.736531,-2.3314717,0.8941867,-16.327814,-1.6609991,2.4503813,-3.6374283,-0.6596921,9.849289,-14.884527,-1.1636002,0.6155845,-8.222146,-5.141633,-0.5370852,-5.7601967,-4.908692,15.751319,-11.650062,-4.051799,0.5934206,-7.555726,-1.4091848,-3.6987538,-10.105904,-22.837729,17.182217,-5.6643405,10.411446,11.071543,0.27309245,-4.372298,5.5406837,-6.212126,-0.35981682,-5.5743237,-2.5941713
31.492239,-57.63586,-6.5857573,29.661552,3.7017179,-10.8632555,-7.9604187,7.649908,-15.837386,9.550492,-6.727681,9.936364,3.760481,3.0996354,-12.401596,-2.7727816,0.8772003,-12.540804,-1.7822104,2.9123788,-1.1844354,-0.6191175,8.930971,-15.226933,-1.1780683,0.4757035,-6.873526,-5.4008927,0.18921307,-4.1487613,-4.9069715,15.907488,-12.751391,-3.7473717,0.37750274,-7.908341,-0.9705559,-3.1117787,-9.019297,-21.986488,16.820248,-5.4253883,9.854385,10.893977,0.37063885,-4.479658,4.9795494,-10.728482,-0.45411724,-5.3816795,-4.134833
38.565704,-65.85042,-16.082577,32.146824,2.0871294,-14.004053,-9.29906,8.705203,-23.582027,8.474845,-6.555692,-11.748094,4.2262387,4.3697863,-28.40596,-2.877796,1.0224433,-52.56564,-1.1526955,1.911564,-29.466532,-1.338174,9.195291,-39.04944,-1.5097487,1.1380287,-52.017025,-7.603361,2.0098696,-30.147903,-4.515487,16.192299,-39.416107,-5.450134,1.4423828,-58.961376,-2.9486368,-3.5050445,-35.487225,-23.605349,19.563227,-6.8915315,10.360813,10.551875,-15.493644,-6.2564483,5.275431,-36.535275,-0.42722824,-6.527941,-19.704376
34.92077,-64.002335,-8.182255,32.635017,4.473956,-11.865849,-8.800505,8.191882,-16.880507,10.8078,-7.2004657,14.629968,4.183949,3.466479,-16.56627,-2.8431847,0.796728,-13.760705,-1.9156376,3.1464436,1.0126747,-0.5557537,10.221477,-20.498455,-1.6366384,0.7487566,-8.747339,-5.781074,0.2874173,-4.085537,-5.6876416,17.88164,-17.446089,-4.470927,0.38162965,-9.6771,-1.4415358,-3.4003463,-10.79758,-24.602814,18.496843,-6.2612834,11.202304,11.15485,-0.957484,-5.074531,5.338595,-11.577973,0.23170447,-5.76186,-3.638713
33.8542,-61.8274,-7.4626255,31.643763,4.4255586,-11.422733,-8.573621,8.015509,-16.413221,10.331378,-7.0635376,13.122069,3.9195807,3.4028785,-15.460936,-2.8963623,0.79059136,-13.584844,-1.9276484,3.1922677,0.811065,-0.52943575,9.981205,-19.290163,-1.3705502,0.64636713,-8.111889,-5.3769956,0.21126173,-3.5214195,-5.28948,17.31901,-16.152187,-4.189051,0.3869096,-8.908843,-1.3043631,-3.5475643,-10.153996,-23.617682,17.955172,-6.1446943,10.535074,10.787275,-1.0276368,-4.937462,5.222961,-11.787636,-0.06242687,-5.7739367,-3.9309297
32.24581,-58.806293,-6.9729004,30.088255,4.287665,-10.587652,-8.088966,7.7433567,-15.417477,10.010174,-6.637225,12.454622,3.6978805,3.4964666,-14.104781,-2.813547,0.8890678,-12.668529,-1.8743975,2.9611385,0.11751408,-0.36154023,9.365356,-17.708033,-1.2711005,0.561283,-8.17905,-5.141659,0.13253361,-3.9170694,-5.037586,16.163595,-14.540605,-3.9381092,0.35132444,-8.350369,-1.3344637,-3.2807643,-9.771366,-22.42236,17.223156,-5.7406163,10.008088,10.084273,-0.6357241,-4.734844,5.0508876,-11.567338,-0.19566344,-5.4175863,-4.4249043
31.950562,-59.195892,-7.504832,29.93535,3.9894965,-10.715214,-8.239855,7.1843743,-14.894443,10.118951,-6.761411,13.70774,3.9730723,3.274246,-16.104788,-2.8193934,0.79343677,-14.061199,-1.6549633,2.813733,1.1119668,-0.37485686,9.611001,-19.049997,-1.3676825,0.458146,-8.5478115,-5.644536,-0.15726674,-3.5249753,-5.1077023,16.617403,-16.441492,-3.9398553,0.19374765,-9.459919,-1.0047942,-2.9307458,-10.187388,-22.556723,17.023655,-5.52874,10.087119,9.496747,-2.553966,-4.4105015,4.9271355,-11.745188,0.02151342,-5.45556,-2.9718766
30.475546,-56.506706,-6.284397,28.872765,4.629489,-9.846838,-7.976222,7.230123,-13.231273,9.940907,-6.217803,13.785544,3.3948267,3.197185,-13.078565,-2.8364084,0.9875298,-11.613026,-2.054883,2.5904396,0.8746651,-0.36417142,9.053654,-17.464312,-1.2049358,0.43198565,-8.005167,-5.085918,0.04872425,-3.438537,-4.7525043,15.393045,-13.896109,-3.8252516,0.33493376,-7.8797965,-1.0005909,-2.9855185,-9.063976,-21.668703,16.546549,-5.388681,9.582606,9.43185,-1.403354,-4.4102693,4.7600274,-11.917877,-0.023730937,-5.266402,-4.65608
33.431343,-61.623947,-7.490028,31.329496,5.0460353,-11.25443,-8.511327,7.8968825,-15.735674,10.637581,-6.881637,13.863288,3.9112425,3.3098507,-15.88322,-2.9781008,0.90139914,-13.3836975,-1.9817463,2.7765105,1.429289,-0.46158072,9.979115,-20.120298,-1.1161845,0.54332983,-8.320037,-5.5504847,0.10024898,-3.1322215,-5.044868,16.972223,-16.907633,-4.085549,0.40648383,-8.885775,-1.0652368,-3.454473,-10.232694,-23.363594,17.915218,-5.747497,10.389256,10.366643,-1.9339244,-4.870792,5.1100087,-12.601953,-0.22567782,-5.667527,-3.8455882
34.475384,-63.668655,-6.2213097,32.243896,4.4286737,-11.120767,-8.993875,8.323031,-15.780773,11.188781,-7.0116887,14.715563,4.0311213,3.6735373,-14.226203,-3.4573584,1.2708858,-13.435418,-2.0346005,3.722718,0.037124846,-0.2002121,9.846193,-18.719734,-1.4632955,0.48371133,-8.583446,-5.583299,0.26422927,-3.8271408,-5.250232,17.623291,-14.610709,-3.8689356,0.25037336,-8.58767,-1.1254234,-3.2410908,-10.318986,-24.506294,18.516846,-6.1636863,10.639979,10.837105,-0.3791238,-5.100113,5.166363,-13.019422,-0.31926528,-6.2387524,-4.8397098
34.679943,-64.90316,-8.7971735,32.45259,4.377162,-12.143198,-8.614528,8.0095,-15.879315,11.419653,-7.2144165,15.754238,4.089071,3.4496343,-19.236874,-2.7079165,0.7324097,-15.162884,-1.6458749,2.856191,0.8914946,-0.03797164,10.138212,-23.687386,-1.2033714,0.514253,-10.010872,-6.3315115,0.06746249,-4.7065473,-5.661737,18.397541,-19.644983,-5.002668,0.28349328,-10.777782,-1.4294636,-3.242535,-11.220181,-24.133522,18.652845,-5.98087,11.357111,9.887309,-1.7721667,-4.640976,5.176656,-12.133373,0.8850327,-5.8210597,-3.3752189
34.02024,-61.822037,-9.811831,31.898895,5.6874423,-10.55235,-8.449967,9.0431185,-16.350475,9.539701,-8.1015005,6.6785183,4.6666675,4.402088,-20.725557,-3.0360744,0.37796843,-26.481344,-1.2522182,2.5227635,-7.9248657,-1.045836,9.725718,-32.207287,-1.9254462,1.284115,-37.536858,-6.0600977,0.42579684,-19.606735,-4.5545697,15.25125,-28.16963,-4.438997,0.38102162,-32.57538,-1.8539323,-3.2754822,-21.689596,-23.626936,18.668554,-7.220119,10.061305,8.837704,-12.272598,-6.0102553,5.11512,-29.130157,-0.88825816,-5.4278374,-15.452247
33.54228,-61.20726,-7.1115246,31.343796,4.1423335,-11.53066,-8.649662,8.075042,-16.899942,10.305782,-7.061091,11.965372,3.9753666,3.0020614,-13.880042,-2.980491,1.1507043,-12.873955,-1.8789557,2.9318109,0.30770105,-0.39943266,9.53039,-17.854372,-1.1955283,0.434447,-8.161024,-5.4784927,0.09356899,-4.6154065,-5.215419,17.228474,-14.810376,-3.8828743,0.29180723,-8.539402,-1.1904758,-3.1269293,-10.237774,-23.407047,17.886675,-5.7506123,10.368623,11.020679,-0.37599272,-4.832373,5.2069182,-11.818986,-0.3231753,-5.872776,-4.56824
