41.46495,-64.704216,-32.29622,30.074745,-3.7539425,-15.143942,-6.887355,7.0793815,-41.94654,5.916695,-5.474757,-47.941006,4.9098926,3.1719253,-52.500507,-2.8735502,0.6994919,-96.42698,-0.92910457,2.4705834,-53.87743,-0.3942931,9.36182,-47.0157,-1.322763,0.5391176,-30.815735,-6.384053,0.6962032,-17.66846,-4.8098464,16.112457,-68.34917,-5.1249375,2.0572612,-111.51038,-4.335367,-1.3203216,-60.259678,-23.346375,17.724232,-5.8479786,8.073136,1.7525826,-66.95774,-6.911748,7.870014,-99.486534,-1.8011796,-4.7817216,-47.204575
39.748154,-61.69138,-31.319204,28.666658,-4.389157,-14.923841,-6.540148,6.8189387,-41.58622,5.640402,-5.2771044,-46.76753,4.74332,2.8459644,-49.88044,-2.8198826,0.7053427,-91.29691,-0.9570128,2.448083,-50.694885,-0.4119759,8.837561,-43.052773,-1.309647,0.52966434,-23.790499,-5.89833,0.48920915,-13.541413,-4.6770105,15.454949,-63.345375,-4.9245157,1.914628,-102.63351,-4.045837,-1.4322286,-55.43394,-22.335913,16.990263,-5.6701207,7.903489,2.0573597,-60.754448,-6.5490065,7.4015174,-89.73658,-1.6014363,-4.7296143,-41.817654
41.758358,-65.27792,-32.348812,30.191345,-4.8135457,-15.787476,-6.851177,7.0907297,-43.356613,5.8165774,-5.424153,-49.844345,4.9917316,2.1759186,-57.051655,-2.8792858,0.68766356,-106.1544,-0.83931196,2.4368806,-59.604263,-0.42951822,9.038034,-43.359818,-1.3096594,0.5166929,-14.993502,-5.6861296,0.25737235,-8.8508,-4.830435,16.431799,-67.23415,-5.1318035,2.047756,-110.81583,-4.3115005,-1.3616637,-59.92486,-23.511555,17.845257,-5.8802376,8.128371,2.0065928,-67.08023,-6.962373,7.929326,-100.70568,-1.7989268,-4.836704,-47.056026
43.25274,-67.53151,-33.718082,31.167465,-5.2028565,-16.412556,-7.0289984,7.2702217,-45.05753,5.9065895,-5.5367527,-52.471478,5.152856,2.2367659,-60.691715,-2.9235709,0.678758,-113.73594,-0.78357756,2.4406853,-64.4345,-0.42760676,9.286671,-45.792606,-1.3188353,0.5202358,-17.523163,-5.9096446,0.30056405,-10.150816,-4.9463205,16.919544,-70.175674,-5.2785983,2.1270282,-116.19994,-4.48496,-1.3302847,-62.815716,-24.284645,18.415123,-6.025566,8.397199,2.087041,-68.28658,-7.110256,8.091204,-102.274315,-1.8168291,-4.963209,-47.773792
42.22301,-66.856766,-31.136028,31.121265,-3.6878011,-15.541078,-7.1909676,7.328221,-41.60309,6.3126755,-5.6688976,-46.418648,5.0744,2.4101253,-57.571293,-2.916655,0.6891493,-105.85019,-0.85049015,2.4652214,-59.878765,-0.41971877,9.357339,-45.271545,-1.3199463,0.5238604,-20.547007,-6.052871,0.41709834,-12.1994505,-4.940405,16.753168,-67.5371,-5.205041,2.0379086,-110.69599,-4.356857,-1.382377,-60.690876,-24.126957,18.298183,-5.997179,8.379752,2.1863587,-66.88145,-7.084959,8.037494,-101.32181,-1.8211596,-4.9152203,-47.90238
43.87502,-69.23309,-32.861526,32.071842,-4.7301927,-16.50978,-7.2509212,7.457581,-44.843597,6.2922583,-5.7164025,-49.997524,5.16335,1.9927459,-59.35501,-2.9639096,0.6869232,-109.60404,-0.85301864,2.5175543,-61.118767,-0.44065005,9.479981,-43.31608,-1.3152677,0.5076354,-9.285384,-5.6645274,0.09735002,-5.779419,-5.047564,17.462585,-68.52924,-5.301057,2.0685334,-112.50685,-4.401704,-1.4495615,-61.322033,-24.9026,18.86143,-6.134012,8.563815,2.332067,-70.23336,-7.310541,8.306729,-106.55361,-1.8868402,-5.0381217,-49.51601
39.054523,-61.626354,-28.963072,28.835396,-2.977978,-14.201573,-6.7569895,6.898386,-38.306553,5.9464536,-5.367031,-42.876347,4.747264,2.5101328,-50.58158,-2.8158584,0.7040136,-92.35677,-0.93547034,2.4291093,-51.84973,-0.41304955,8.842834,-42.341473,-1.3060086,0.5262655,-21.568163,-5.839396,0.49546525,-13.012467,-4.6732516,15.53263,-63.327644,-4.928181,1.9347614,-103.63122,-4.102841,-1.3573359,-56.617558,-22.358372,17.000605,-5.6707067,7.7399254,1.7584612,-65.20226,-6.7577667,7.702485,-98.861404,-1.8021053,-4.6120367,-47.157497
40.41195,-63.25574,-30.971783,29.420988,-4.1132493,-15.07844,-6.76982,6.986232,-41.089203,5.899903,-5.4119415,-46.00666,4.854325,2.6679711,-52.679314,-2.847362,0.6988892,-96.885254,-0.9119657,2.444933,-54.20934,-0.4159231,8.98597,-43.47052,-1.3118129,0.5266778,-22.241081,-5.9133306,0.4469213,-12.799028,-4.7581487,15.866542,-64.17419,-5.0047045,1.9421636,-104.61353,-4.1274858,-1.4253248,-56.88206,-22.88251,17.38961,-5.768978,8.076348,2.1937633,-61.844585,-6.689501,7.563809,-92.42442,-1.6488214,-4.7939205,-43.249195
41.943626,-66.330246,-31.074673,30.817461,-4.314972,-15.768833,-7.0801764,7.2495804,-42.033806,6.187129,-5.5756397,-46.934113,5.0233717,2.107493,-57.073837,-2.9038856,0.6890578,-106.14777,-0.8528553,2.4629562,-59.55274,-0.43717793,9.163408,-42.454113,-1.3110666,0.5138743,-13.283891,-5.679695,0.21121013,-7.953115,-4.906575,16.759138,-65.64098,-5.1476045,1.9988477,-108.10505,-4.2459126,-1.440985,-58.91692,-23.936766,18.155148,-5.956028,8.352156,2.4665036,-65.31063,-6.996092,7.937992,-99.24234,-1.7696943,-4.920573,-46.41853
41.93842,-66.20873,-31.226149,30.764479,-4.34236,-15.764066,-7.0724897,7.2529383,-42.021202,6.2177777,-5.6078334,-46.522625,5.028956,2.4172692,-56.677143,-2.9042864,0.6902794,-104.997314,-0.8587092,2.4628668,-59.168793,-0.42858955,9.219448,-43.79455,-1.3170339,0.52131647,-18.660141,-5.9056063,0.32969025,-10.790877,-4.91464,16.61545,-65.20342,-5.1398396,1.9718833,-106.843346,-4.2202177,-1.4678439,-58.425476,-23.90153,18.131922,-5.952807,8.461598,2.6384878,-62.024643,-6.8708096,7.7449718,-93.654144,-1.6563956,-4.9671683,-43.634064
42.57053,-66.53687,-33.08099,30.786707,-4.491399,-15.851359,-7.0040264,7.219253,-43.589035,5.943424,-5.563951,-50.555817,5.1099424,2.8554437,-58.62132,-2.904285,0.68352187,-108.87671,-0.80300546,2.4266326,-62.29083,-0.40279943,9.352986,-48.70665,-1.3287351,0.53841406,-30.153902,-6.4383817,0.6478793,-17.318594,-4.902977,16.485184,-70.24226,-5.246364,2.1175458,-115.646286,-4.4944334,-1.2835581,-62.82714,-23.948069,18.167458,-5.9641356,8.346075,2.018682,-65.81083,-6.9829636,7.9148927,-98.18403,-1.76513,-4.90758,-46.46094
40.9067,-64.89456,-29.77801,30.264791,-3.724998,-15.21066,-7.0279217,7.1795964,-40.21142,6.292646,-5.5870366,-43.44057,4.9350586,2.349054,-54.502846,-2.8815567,0.6964815,-99.892975,-0.8995279,2.465394,-56.015186,-0.4282514,9.10778,-42.252514,-1.3118552,0.518859,-17.02693,-5.769841,0.30343133,-9.955342,-4.856391,16.329826,-62.84528,-5.0431485,1.9018815,-102.38233,-4.094788,-1.502466,-56.377922,-23.470533,17.812702,-5.8725147,8.323965,2.6093695,-60.988216,-6.785329,7.6420145,-92.61857,-1.6395098,-4.8955584,-43.15885
43.73471,-69.17718,-32.22979,32.173653,-4.5813746,-16.480276,-7.3142776,7.5368843,-44.06398,6.6197786,-5.893727,-46.133923,5.135144,2.8376474,-55.890305,-2.9766145,0.69839114,-101.270676,-0.93014634,2.5645583,-56.45392,-0.42441922,9.6825485,-45.130196,-1.3294338,0.522945,-21.053438,-6.1824217,0.33996075,-11.788471,-5.1081963,17.228752,-64.4379,-5.236685,1.9003205,-103.32904,-4.1685367,-1.6529022,-57.152317,-24.962317,18.912241,-6.1522875,9.036503,3.3710346,-58.04551,-6.909524,7.6632686,-87.35596,-1.4935638,-5.2392826,-39.716
42.324734,-68.12824,-28.950552,31.941788,-3.1814675,-15.593226,-7.4476957,7.5431733,-40.16861,6.9554157,-5.932633,-40.21029,5.0511127,2.3910718,-54.656685,-2.956699,0.70217085,-98.35613,-0.9522341,2.555799,-54.669697,-0.43579024,9.532594,-41.838066,-1.3195612,0.5139987,-14.350059,-5.856905,0.21624003,-8.518605,-5.062063,17.146227,-61.2615,-5.1340847,1.824137,-98.21421,-4.0256987,-1.6801898,-55.04045,-24.666714,18.685299,-6.089189,8.864061,3.350963,-58.855022,-6.937087,7.7284684,-90.55232,-1.5765399,-5.1302395,-41.751106
42.217354,-66.89852,-30.835583,31.19142,-4.0835,-15.790563,-7.1840982,7.3483543,-42.01991,6.397325,-5.681227,-45.638298,5.05042,2.1850028,-56.944435,-2.9262471,0.69237024,-104.681305,-0.8835437,2.4952416,-58.495594,-0.43602195,9.293188,-42.693054,-1.3145224,0.5140937,-13.686813,-5.7406583,0.2096082,-8.059814,-4.9642267,16.908676,-64.88916,-5.1579633,1.9528048,-105.769554,-4.191774,-1.5152776,-58.007656,-24.202131,18.355827,-6.012225,8.534674,2.6932182,-63.534412,-6.9788465,7.8744125,-96.41871,-1.6991489,-5.0059047,-44.80671
42.893284,-68.97404,-29.512522,32.45407,-1.9913216,-15.1422415,-7.6359177,7.6531425,-39.402477,7.105381,-6.0257964,-40.074406,5.1029625,3.003832,-54.343796,-2.9776287,0.704032,-96.802055,-0.9780461,2.57723,-53.86461,-0.40406993,9.969897,-46.465515,-1.3318896,0.5303693,-26.091301,-6.4589186,0.56846845,-15.344593,-5.100602,17.259743,-66.05358,-5.252413,1.9451687,-105.74102,-4.258688,-1.5370597,-59.02553,-24.985035,18.9269,-6.15642,8.778805,2.616869,-65.42578,-7.189883,8.087989,-100.01877,-1.7752348,-5.070062,-47.354713
49.660202,-86.87035,-22.186317,42.491188,6.016666,-14.861646,-11.160367,10.002908,-24.284067,11.018321,-8.138856,-21.784685,5.730114,6.773495,-50.347214,-3.3896894,0.71893287,-96.410866,-1.0776603,2.8937545,-59.792793,-0.32867843,13.429314,-68.82482,-1.4632745,0.6506273,-110.3064,-11.622114,2.9976923,-65.695564,-6.2210016,21.568815,-79.625435,-6.313649,2.3721168,-134.50725,-5.2070627,-1.3745248,-76.13284,-32.02412,24.105015,-7.432962,11.313899,6.0595436,-73.25265,-8.815867,10.030916,-126.60197,-2.5791523,-5.74078,-70.05052
37.461796,-63.354294,-20.371399,30.533218,0.71471465,-12.878506,-8.036809,7.5245047,-24.283201,7.5225673,-5.972745,-27.451601,4.7588334,3.2224376,-47.72694,-2.8626523,0.70018846,-95.27398,-0.86449397,2.3931365,-57.508286,-0.4246293,9.1862755,-44.333076,-1.3382286,0.56803155,-49.903122,-7.380276,1.3591045,-30.333288,-4.8721466,16.233034,-59.444183,-5.033085,1.9301538,-103.85819,-4.0853367,-1.31685,-57.454113,-23.412155,17.78132,-5.8552895,8.494517,4.289996,-55.50618,-6.7722282,7.743823,-93.49182,-1.898192,-4.682693,-49.774384
35.890553,-61.589046,-17.744781,29.844126,0.46785402,-12.726656,-7.932784,7.4404607,-22.483875,7.7562904,-5.9624543,-21.496206,4.490644,2.980823,-39.54588,-2.8428009,0.7233944,-79.03055,-1.0286753,2.4784505,-46.61326,-0.4619687,8.82617,-36.329086,-1.3223574,0.54862356,-37.068825,-6.7097254,0.9843892,-22.751156,-4.83689,15.995575,-49.195244,-4.7727976,1.6253445,-85.075645,-3.4972315,-1.679034,-47.551296,-22.868975,17.37917,-5.7524266,8.671319,5.6483974,-44.651222,-6.3521767,7.139133,-78.090805,-1.5815974,-4.7736444,-41.17642
33.32994,-59.500813,-11.901773,29.429682,2.8901432,-11.212195,-8.235205,7.5089865,-14.695959,8.556009,-6.166271,-8.493493,4.3233333,3.1233463,-34.62028,-2.818714,0.7364941,-68.54829,-1.1125803,2.4858203,-41.038246,-0.46594247,8.7377,-33.574238,-1.3233411,0.55559367,-41.508724,-6.8469977,1.1373702,-25.534193,-4.800285,15.669616,-41.402706,-4.568077,1.4028784,-71.264404,-3.1080046,-1.844569,-41.52383,-22.366053,17.006279,-5.6569157,8.79163,6.695621,-35.204468,-6.024789,6.700888,-67.033104,-1.407363,-4.7442813,-36.890114
46.936832,-87.14183,-10.633364,43.46867,7.8727407,-14.2640085,-11.94725,10.4810095,-12.545404,13.329519,-8.853231,7.5600224,5.7810593,5.4235477,-53.139854,-3.4152284,0.7157622,-99.469505,-1.0954392,2.90991,-59.893387,-0.41263628,13.163154,-53.127216,-1.4410851,0.603556,-78.67024,-10.161764,2.007874,-46.271976,-6.409815,22.458887,-51.895252,-5.8425403,1.5363666,-84.730576,-3.8400283,-2.3657837,-53.774876,-32.516193,24.431234,-7.488187,12.99013,11.14356,-29.217197,-7.4933167,8.008158,-66.43366,-1.271326,-6.451331,-37.419285
30.032213,-56.365494,-4.820292,28.591341,3.3706508,-10.543851,-8.136477,7.4855146,-11.092568,9.694844,-6.3496895,10.571889,3.693716,2.711259,-12.577842,-2.8180711,0.8074487,-19.155252,-1.6624291,2.7989674,-6.944496,-0.5465857,8.21954,-13.8007965,-1.286196,0.50249505,-6.8493996,-5.1050835,0.11144416,-4.530631,-4.8157587,15.477184,-14.148717,-3.8890119,0.5025491,-15.822051,-1.4206798,-2.9647183,-13.007667,-21.559456,16.406466,-5.5086794,9.55421,10.252197,-5.348828,-4.9081593,5.04004,-21.996113,-0.42868963,-5.1598554,-11.182621
29.82334,-56.18694,-4.290589,28.562883,3.2567916,-10.602952,-8.096238,7.483951,-11.306401,9.725446,-6.386037,11.351665,3.6886384,2.764541,-12.052769,-2.8190546,0.8108524,-17.487265,-1.6762104,2.8142083,-6.067057,-0.5423067,8.222542,-13.406374,-1.2859454,0.5003367,-5.9982023,-5.070608,0.06952299,-4.0064664,-4.8296623,15.359467,-12.309053,-3.853364,0.42927256,-12.11481,-1.3375261,-3.0452092,-11.374614,-21.544214,16.394777,-5.5044136,9.658308,10.4663725,-2.0655499,-4.8217854,4.862589,-17.327808,-0.3145167,-5.214312,-8.231575
34.546036,-65.07914,-5.3045735,33.01561,4.929679,-11.50267,-9.271004,8.415287,-11.573804,11.043814,-7.154096,13.034812,4.1315784,3.549293,-17.088945,-3.0113697,0.80606586,-25.875996,-1.6864536,2.9558725,-11.126532,-0.522473,9.644169,-21.433542,-1.3247883,0.5203224,-21.338326,-6.3094916,0.48927164,-12.849352,-5.324962,17.554575,-19.992704,-4.3392015,0.60469663,-23.92535,-1.763439,-3.0552173,-18.53686,-24.777834,18.77218,-6.101776,10.751585,11.224677,-7.8642473,-5.531663,5.6776137,-27.896614,-0.5276638,-5.6400747,-14.767011
29.88159,-56.486797,-3.5924125,29.001623,4.062061,-10.320929,-8.2807455,7.6303535,-10.680065,10.136058,-6.513357,14.6298065,3.68686,2.89942,-10.455733,-2.8501706,0.8199052,-12.248643,-1.7692814,2.8744016,-1.9484755,-0.5393868,8.420561,-13.685824,-1.289679,0.5022345,-7.8339252,-5.1715994,0.107384406,-4.521232,-4.895178,15.659778,-11.473496,-3.8400297,0.35540614,-7.5954213,-1.1807557,-3.1712341,-8.937944,-21.830761,16.631123,-5.580408,9.920742,10.871839,0.6716738,-4.733213,4.7451453,-11.920205,-0.20179085,-5.3396826,-5.768631
30.490932,-57.323673,-4.3642154,29.31721,3.751836,-10.634438,-8.332529,7.684372,-11.221145,10.121867,-6.556969,13.361133,3.7036066,3.0701349,-10.14365,-2.8649154,0.8201692,-12.626488,-1.7679206,2.890562,-2.3485205,-0.54044455,8.54187,-14.08723,-1.2937307,0.5044101,-9.627778,-5.3082695,0.14618787,-5.64868,-4.9379253,15.789042,-12.035798,-3.8909473,0.37939104,-9.544894,-1.2417336,-3.1674056,-9.924587,-22.09104,16.820559,-5.625498,10.004473,10.935997,0.03397528,-4.805211,4.8178864,-13.160085,-0.22986436,-5.371332,-6.3995743
30.192965,-56.77035,-4.2722116,29.047142,3.7265835,-10.534667,-8.255883,7.62473,-11.296066,10.049483,-6.5009995,13.301898,3.6702597,2.9960425,-9.625323,-2.8532438,0.8208316,-11.438313,-1.7728884,2.883525,-1.5898553,-0.5438191,8.439176,-13.372049,-1.2902619,0.502134,-7.6749697,-5.191113,0.101832695,-4.638539,-4.906331,15.648916,-11.612781,-3.8571405,0.36930978,-8.67594,-1.209403,-3.1663964,-9.411654,-21.885288,16.667646,-5.5875154,9.906003,10.783304,-0.3835023,-4.7758474,4.7938614,-13.439708,-0.22955975,-5.3368015,-6.423432
31.647383,-58.738644,-5.954644,29.830942,3.0359917,-11.249461,-8.324418,7.7434506,-13.403602,10.061203,-6.6185923,10.78635,3.8085558,3.1165857,-12.4949665,-2.885559,0.8154778,-16.734882,-1.7366282,2.8979108,-4.5967946,-0.5364007,8.698805,-15.381845,-1.2971523,0.5035926,-9.397531,-5.3637238,0.115746096,-5.367473,-4.9932466,16.087069,-13.387215,-3.967556,0.4136,-11.906741,-1.3352513,-3.171167,-11.303172,-22.523169,17.130512,-5.697088,10.161511,11.054912,-0.021399029,-4.873614,4.8601813,-13.259443,-0.20264876,-5.4562774,-5.845596
32.26474,-59.433247,-6.7810545,30.114712,2.5140803,-11.6321535,-8.295984,7.79129,-15.405873,10.09423,-6.683551,9.956133,3.8437757,2.9831061,-12.895138,-2.9049263,0.81801856,-15.744307,-1.7623945,2.9247289,-3.5503538,-0.54031014,8.69807,-15.475099,-1.298123,0.5011685,-8.111005,-5.336015,0.063875094,-4.3838735,-5.0295763,16.393034,-13.020034,-3.9698296,0.37628004,-9.337396,-1.2609454,-3.2531877,-9.981543,-22.766802,17.313261,-5.748211,10.365749,11.597458,2.8586283,-4.80472,4.750376,-8.216362,-0.10666227,-5.560694,-3.2397246
33.872486,-62.3719,-7.236762,31.578178,3.0320709,-11.947492,-8.637811,8.085696,-16.09775,10.56197,-6.914822,10.860594,3.9521945,3.1602912,-13.30416,-2.9697123,0.8203395,-15.456422,-1.8086392,3.0010097,-2.6388214,-0.5440827,9.166916,-15.65494,-1.3039696,0.4974666,-5.672175,-5.397417,-0.012296878,-3.098826,-5.202362,17.07961,-13.944838,-4.0883694,0.37847474,-10.027437,-1.3016453,-3.339398,-10.719358,-23.815296,18.08232,-5.9404283,10.678669,11.498214,-0.22546834,-5.0492907,5.0127025,-12.305289,-0.14866427,-5.71872,-4.775052
33.30663,-58.55775,-12.942006,28.958845,1.8064036,-11.556631,-7.82246,7.3852353,-19.514095,8.701763,-6.1541405,-5.131528,4.3246713,3.859306,-32.82791,-2.8193521,0.7504803,-56.932606,-1.2757996,2.5534015,-31.503311,-0.4345126,8.803697,-35.352776,-1.3271959,0.5605999,-45.341454,-6.799938,1.0546904,-24.783836,-4.7937593,15.34001,-34.258118,-4.309469,1.0196127,-47.525974,-2.4137053,-2.3714886,-29.2731,-22.027853,16.762457,-5.6049423,9.624075,8.498953,-8.657658,-4.8519096,5.0293784,-19.08592,-0.31774288,-5.2562,-9.96441
33.355377,-60.70606,-8.332296,30.629402,2.7438865,-11.7106285,-8.306999,7.8508377,-17.209627,10.166239,-6.739787,9.217011,3.923598,3.2544713,-14.084544,-2.9273052,0.8187783,-15.23847,-1.7948196,2.9563134,-2.3407803,-0.52199537,9.0433655,-17.506618,-1.3020664,0.50216794,-8.934802,-5.3923426,0.05601398,-4.47023,-5.0767455,16.549885,-15.070048,-4.0239377,0.39392623,-10.603477,-1.3303442,-3.2663615,-10.99636,-23.113111,17.560085,-5.809572,10.40725,11.004896,0.38062125,-4.8851323,4.827123,-9.540243,-0.085531555,-5.622241,-3.030098
33.545017,-60.533672,-10.134569,30.27851,3.1602216,-11.349691,-8.352484,7.7420197,-16.158527,9.54461,-6.4734335,1.306181,4.199509,3.411237,-25.901045,-2.8843186,0.7729273,-43.753765,-1.449026,2.7105703,-22.490835,-0.48289803,9.006938,-27.887857,-1.3178318,0.535372,-29.981377,-6.2967877,0.6917659,-17.008593,-4.962094,16.19141,-29.447565,-4.3127728,0.8957857,-40.4424,-2.1944745,-2.5765471,-25.92381,-22.900723,17.407093,-5.769991,9.781633,8.964093,-14.36267,-5.2979097,5.5731072,-31.43697,-0.59510624,-5.2845764,-16.644136
33.568905,-61.149815,-8.925104,30.667345,4.7228723,-10.662648,-8.512744,7.813441,-13.993319,9.744918,-6.621072,4.067261,4.4591584,3.4855232,-35.101425,-2.8792386,0.7523139,-59.121887,-1.283533,2.6029925,-33.153408,-0.4340902,9.350408,-34.294376,-1.3300388,0.5507569,-39.766216,-6.767578,0.97424865,-22.798904,-4.9600897,16.12189,-33.827923,-4.4159627,1.0077071,-47.916336,-2.5350642,-2.361819,-31.531668,-23.088072,17.526834,-5.7886605,9.697296,8.094108,-17.04151,-5.449622,5.7390585,-36.713757,-0.66821194,-5.218546,-19.357332
34.434185,-62.678234,-8.806734,31.468996,2.0666835,-12.434448,-8.455041,8.009787,-18.522198,10.260092,-6.877066,7.6775165,4.041868,3.1894093,-16.458757,-2.9644008,0.8139397,-20.290215,-1.7502787,2.9701376,-5.7673516,-0.5260001,9.150864,-18.760664,-1.3091029,0.5034609,-10.153311,-5.57663,0.07724341,-5.1080723,-5.180307,17.047926,-15.826225,-4.1260166,0.41989332,-12.27718,-1.4054635,-3.2930737,-11.989132,-23.796421,18.058846,-5.932306,10.752734,11.780097,2.6530638,-4.9570923,4.8617015,-7.8853445,-0.055700876,-5.7600374,-2.2376995
34.66483,-64.13877,-6.8058414,32.56879,3.9886,-11.802818,-8.8712845,8.294163,-16.393953,10.981404,-7.104072,13.190606,4.0543385,3.2764885,-14.177166,-3.0169795,0.82435983,-13.754359,-1.8591769,3.0554554,-1.0228224,-0.5272201,9.545573,-17.727764,-1.3113225,0.49929634,-7.4934163,-5.5635953,0.030342162,-3.7880359,-5.3089447,17.524576,-15.19778,-4.153281,0.35759437,-8.726182,-1.3030359,-3.4060802,-10.484271,-24.47562,18.5693,-6.0708494,10.931265,11.510035,-0.5045505,-5.147088,5.0973716,-11.811416,-0.1182785,-5.846369,-4.3530607
32.149803,-58.739876,-7.64758,29.645714,2.6299572,-11.364934,-8.085106,7.646579,-16.612652,9.878316,-6.5549536,9.021713,3.8629677,3.035865,-14.562564,-2.880661,0.81468755,-16.414732,-1.7523596,2.896509,-3.468484,-0.5227448,8.690601,-16.875372,-1.2950258,0.50094837,-7.1229506,-5.2009597,0.029125929,-3.5319848,-4.9577,16.022717,-14.564554,-3.9403892,0.39867002,-10.095077,-1.3120148,-3.1970143,-10.64332,-22.384384,17.020964,-5.6736245,10.115086,10.712046,0.6044517,-4.761485,4.70814,-9.310764,-0.08195339,-5.4949803,-2.9166293
36.70218,-65.49378,-12.672262,32.389446,2.6980457,-12.470304,-8.596273,8.071115,-20.557413,9.878221,-6.7879806,-0.46627596,4.5581074,4.0945997,-32.96532,-2.9691195,0.7631464,-53.341274,-1.4050305,2.7532153,-27.60848,-0.43752226,9.852657,-35.243835,-1.3411252,0.5488939,-39.581192,-6.926189,0.85302484,-21.17044,-5.1906834,17.076109,-33.076237,-4.5254436,0.91587603,-42.3033,-2.3561323,-2.689643,-27.78131,-24.48115,18.544493,-6.038845,10.601183,9.602188,-7.8089695,-5.2547293,5.3478084,-19.559452,-0.26117384,-5.6975956,-8.915783
32.630917,-60.032753,-6.8523173,30.501637,3.6596525,-11.15176,-8.358148,7.8520966,-15.652363,10.30026,-6.7394304,11.493777,3.9455566,3.11781,-15.376749,-2.918392,0.8164852,-16.718489,-1.7791712,2.937591,-3.288936,-0.5140657,9.039532,-17.63615,-1.2991178,0.50001293,-7.116234,-5.290242,0.03185886,-3.599492,-5.0558467,16.390402,-15.329128,-4.0056725,0.39025372,-10.494037,-1.3473125,-3.230087,-11.295986,-22.962614,17.455294,-5.786968,10.268297,10.489481,-1.8649698,-4.9461145,4.907489,-13.177099,-0.13670503,-5.562485,-4.7389617
31.677473,-57.679626,-7.668535,29.199533,2.9105022,-11.0312605,-7.968109,7.5571136,-16.502377,9.799221,-6.4964166,9.366916,3.8437212,3.011882,-14.823169,-2.8607569,0.81503755,-15.817417,-1.7606659,2.8834105,-2.7871523,-0.5137533,8.662913,-16.939531,-1.2910131,0.49945295,-6.1873536,-5.08486,0.0003303811,-2.9351256,-4.901437,15.764801,-14.813735,-3.8966765,0.38990408,-9.876058,-1.3062148,-3.1722007,-10.637361,-22.034822,16.769789,-5.6134396,9.923351,10.173654,-0.99940145,-4.7472267,4.700613,-10.697242,-0.0933369,-5.4270115,-3.3216672
30.723234,-56.79942,-6.106956,28.851309,3.6087966,-10.504524,-8.05177,7.5145683,-13.391979,9.867856,-6.430088,11.93175,3.7305768,3.1942022,-11.794357,-2.839418,0.817791,-12.392101,-1.774888,2.8681474,-1.2108339,-0.517818,8.59067,-16.002296,-1.2910618,0.5050224,-9.632801,-5.1869855,0.11731424,-4.9687753,-4.8542757,15.501961,-13.724246,-3.852614,0.3941398,-9.613967,-1.2697874,-3.131501,-10.160881,-21.71568,16.527573,-5.546233,9.7902565,10.191892,-0.9062776,-4.696264,4.694837,-11.425957,-0.14877054,-5.3307915,-4.528636
31.73001,-59.173836,-5.2999096,30.198013,3.8423946,-10.931502,-8.436938,7.8358464,-13.226621,10.339555,-6.6990037,12.99782,3.8534153,3.0303328,-13.314938,-2.9036145,0.8174372,-15.727711,-1.7726688,2.922845,-3.334542,-0.5305063,8.835844,-15.602584,-1.2965324,0.50032884,-7.070201,-5.2671337,0.05162234,-3.8499172,-5.032091,16.257109,-13.5154,-3.9666057,0.3800369,-9.72594,-1.2852764,-3.222559,-10.514369,-22.735367,17.29247,-5.7452984,10.22107,10.821077,-0.84321785,-4.9094625,4.8993998,-13.339539,-0.18216853,-5.5039325,-5.6072555
32.447315,-60.120262,-6.1275344,30.58707,3.4334936,-11.315966,-8.472584,7.9012623,-14.43359,10.369,-6.758756,11.805829,3.9058707,3.0163949,-14.240802,-2.9216442,0.8161177,-17.31921,-1.7672062,2.9379168,-4.1039305,-0.53491104,8.910097,-15.682837,-1.2979234,0.497975,-5.6836014,-5.260067,0.0023460612,-3.074146,-5.080798,16.498144,-13.776047,-4.00785,0.38456523,-10.220187,-1.3081474,-3.2507558,-10.893509,-23.055855,17.527002,-5.8023195,10.353235,10.98875,-0.73789304,-4.9543333,4.9302225,-13.172015,-0.16593564,-5.5694976,-5.257109
34.36599,-64.44182,-5.433228,32.783127,3.92744,-11.949692,-9.107542,8.384569,-13.62446,11.103363,-7.13824,13.867474,4.026082,3.2461417,-13.508254,-3.0205867,0.8200945,-17.542936,-1.8072376,3.0400538,-4.2986217,-0.55317986,9.439975,-15.57259,-1.3115851,0.49852702,-6.6906466,-5.5983243,0.030468635,-3.9578679,-5.3510094,17.611336,-13.829608,-4.193945,0.3895679,-11.16827,-1.345196,-3.374423,-11.555038,-24.666197,18.709478,-6.096969,10.994292,11.939716,-0.9775298,-5.2548513,5.2458854,-15.840682,-0.22936459,-5.818263,-7.091998
32.76086,-60.211174,-7.0346227,30.549053,3.1616447,-11.453058,-8.366955,7.867112,-15.909656,10.231376,-6.7517753,10.221233,3.954463,3.0452044,-15.735422,-2.921258,0.81444705,-18.872665,-1.7522111,2.9326801,-4.999561,-0.5217058,8.970634,-17.218147,-1.299548,0.4993194,-6.8733187,-5.309492,0.020952836,-3.6319594,-5.073142,16.452808,-15.085552,-4.027471,0.40190354,-11.590181,-1.3739657,-3.2262998,-11.771779,-23.047602,17.520956,-5.8026967,10.327557,10.763105,-1.2441734,-4.971694,4.926324,-13.318985,-0.15178278,-5.575645,-4.957667
32.461624,-60.844753,-4.842978,31.152971,4.7176957,-10.828016,-8.679542,8.041597,-13.157052,10.735919,-6.889014,15.156962,3.947379,3.1728926,-13.963989,-2.9473844,0.8207263,-14.718994,-1.8112669,2.9716685,-2.307734,-0.51577634,9.21693,-17.338205,-1.3039069,0.5026928,-9.227377,-5.465065,0.11008086,-4.9103103,-5.134099,16.71129,-14.665887,-4.0365806,0.36922038,-9.323548,-1.3052397,-3.27335,-10.646787,-23.384415,17.77351,-5.870775,10.460583,10.865325,-1.4623338,-5.0303717,5.013967,-13.985204,-0.18129422,-5.614343,-5.9272113
32.29492,-59.66492,-6.3663225,30.362284,3.6150002,-11.113599,-8.376425,7.8446794,-14.94148,10.308494,-6.7352223,12.024105,3.907627,3.1132374,-14.34493,-2.9136648,0.81813097,-15.667508,-1.7847505,2.9356298,-2.900527,-0.5171584,8.964221,-17.294313,-1.2998545,0.50230545,-8.951397,-5.3550262,0.07998359,-4.5699897,-5.044265,16.373137,-14.621236,-3.9861937,0.37853965,-9.707655,-1.3041312,-3.2401757,-10.6293,-22.867964,17.390036,-5.7718554,10.303494,10.853255,0.02553796,-4.8852463,4.8427277,-10.959235,-0.12206666,-5.5588884,-4.132668
33.021435,-60.6839,-7.053364,30.831636,3.586733,-11.324263,-8.412572,7.9215627,-16.250214,10.370178,-6.816851,11.265181,3.9917479,3.155707,-15.916856,-2.936124,0.8172924,-17.225561,-1.7817032,2.952754,-3.637301,-0.5075116,9.151285,-18.771646,-1.3036305,0.5025404,-9.617516,-5.4387765,0.086263955,-4.848461,-5.0958505,16.597021,-15.869053,-4.04088,0.38938436,-10.722871,-1.3658695,-3.2490528,-11.448952,-23.221312,17.64975,-5.839019,10.420315,10.79021,-0.5582158,-4.961766,4.901698,-11.521419,-0.11186413,-5.6243052,-4.0462074
33.037777,-60.025097,-8.226817,30.367807,2.8974981,-11.509465,-8.169455,7.7922277,-18.294146,10.087651,-6.723449,9.0957775,3.9641137,3.0247304,-15.8576355,-2.919493,0.81791884,-16.073284,-1.7868915,2.9456549,-2.686148,-0.509491,8.991957,-18.16566,-1.2992612,0.4992784,-6.717845,-5.2703733,0.004939355,-3.2117167,-5.0424585,16.434742,-15.751187,-3.9973402,0.37905622,-9.7203245,-1.3338562,-3.2556753,-10.801047,-22.91386,17.422823,-5.7844305,10.296806,10.610766,-0.52000093,-4.8919764,4.816483,-10.172571,-0.078502774,-5.599638,-2.9738455
34.230076,-61.691544,-9.543558,31.05274,2.678948,-11.911534,-8.2416315,7.9016,-20.090014,10.13618,-6.8309236,7.385838,4.1098833,3.2349133,-19.038536,-2.9500268,0.8134559,-20.500717,-1.7590349,2.9576783,-5.281572,-0.4895931,9.293362,-21.55988,-1.3079638,0.5036859,-10.632594,-5.5068636,0.07311027,-5.065975,-5.119196,16.688738,-18.319447,-4.102867,0.42265734,-12.957573,-1.4800761,-3.2397928,-12.95644,-23.442698,17.807316,-5.880887,10.493636,10.570995,-0.7236034,-4.9829326,4.8721166,-10.182169,-0.04507055,-5.699707,-2.4254837
32.311916,-58.092808,-9.139787,29.286596,2.6981633,-11.175674,-7.8347416,7.533751,-18.997896,9.64502,-6.515354,7.181235,3.9505613,3.1437078,-17.597609,-2.8686924,0.8127112,-18.086443,-1.7426534,2.8811128,-4.0562897,-0.48356268,8.851063,-20.534441,-1.2969575,0.5044661,-10.233797,-5.2589626,0.0785394,-4.8161244,-4.904999,15.72783,-17.502882,-3.9437857,0.41926354,-12.085641,-1.4271243,-3.1347241,-12.173946,-22.114483,16.828842,-5.6346083,9.934825,9.794101,-1.3663307,-4.7683687,4.678881,-9.92763,-0.048644118,-5.462484,-2.3141394
32.708332,-59.74608,-7.5614996,30.307703,3.4760969,-11.166352,-8.197243,7.788556,-17.431744,10.133677,-6.7156434,10.084274,3.9830651,3.0559642,-16.692257,-2.9149547,0.81648684,-16.989786,-1.7758703,2.9344816,-3.3870718,-0.4992076,9.0386715,-19.011509,-1.2995212,0.50032663,-7.355934,-5.2842216,0.03155157,-3.6302009,-5.032359,16.26665,-16.536226,-4.002547,0.39303622,-10.751566,-1.3865908,-3.2127776,-11.613277,-22.83021,17.361439,-5.77139,10.191239,10.150987,-2.4647512,-4.94948,4.887053,-13.076681,-0.1200502,-5.5556755,-4.2856216
31.268925,-57.142254,-7.184112,29.005186,3.3756733,-10.698151,-7.935199,7.523977,-16.046938,9.741175,-6.4827166,9.513608,3.8736677,3.0765276,-15.956706,-2.852994,0.81337655,-17.123075,-1.7346511,2.8644414,-4.138891,-0.49475503,8.706038,-18.765366,-1.2936227,0.5034935,-9.167941,-5.2043114,0.09026601,-4.7369866,-4.8794394,15.489795,-16.226112,-3.910541,0.41590115,-11.984353,-1.4085878,-3.0973916,-12.069886,-21.867947,16.650677,-5.589362,9.785535,9.641417,-2.9566739,-4.816494,4.770379,-13.892055,-0.14782101,-5.364585,-4.857856
32.98749,-60.314667,-7.5641155,30.604372,3.9027066,-11.053072,-8.2990265,7.8487835,-16.93865,10.282344,-6.7616844,11.048475,4.0138283,3.2607913,-16.992762,-2.9245894,0.81613094,-16.999756,-1.7855961,2.9434028,-3.195275,-0.49032345,9.221349,-20.206747,-1.3028107,0.5032456,-9.740197,-5.390648,0.08127117,-4.7297254,-5.060328,16.335562,-17.281773,-4.0311,0.40320343,-11.471662,-1.4174088,-3.210229,-12.171852,-23.016237,17.494465,-5.8016567,10.247493,10.029344,-2.9298723,-4.973377,4.91409,-13.346907,-0.11127179,-5.5800915,-4.3077564
30.667185,-56.400806,-6.3145313,28.76564,3.8480437,-10.330784,-7.9515133,7.4955826,-14.705049,9.826228,-6.446135,11.45178,3.7987964,3.0494483,-14.013622,-2.8413405,0.8172045,-13.765348,-1.769711,2.8667848,-1.8213077,-0.5002627,8.645344,-17.35917,-1.2900285,0.50258106,-8.284669,-5.1150675,0.07677301,-4.189607,-4.8467174,15.42605,-14.971653,-3.8519526,0.38442937,-9.663569,-1.3054013,-3.1233373,-10.566444,-21.650444,16.493536,-5.5497656,9.720529,9.666798,-2.4800954,-4.744688,4.7209125,-12.789539,-0.14094138,-5.331485,-4.6410193
32.02064,-58.829292,-6.787946,29.937555,3.8893251,-10.795822,-8.179802,7.7285175,-15.982112,10.094697,-6.6589103,11.010061,3.945564,3.1285553,-16.237583,-2.895565,0.8159455,-16.796951,-1.7639867,2.9113317,-3.662704,-0.49257204,8.994995,-19.326721,-1.2989016,0.5034006,-9.537614,-5.329732,0.09872923,-4.9141192,-4.987824,15.983338,-16.632778,-3.9783883,0.40458992,-11.58913,-1.4100344,-3.1596217,-12.040477,-22.5312,17.14303,-5.7158556,10.046558,9.879733,-3.2184873,-4.937133,4.8902745,-14.56534,-0.15527713,-5.4783826,-5.248214
32.08801,-57.441338,-9.588298,28.886335,2.441598,-11.169541,-7.714759,7.433881,-19.039896,9.414508,-6.4343634,5.781002,3.9420996,3.2565446,-18.067274,-2.8482351,0.8098308,-19.892113,-1.707689,2.8505754,-5.5451775,-0.47498953,8.809172,-21.464258,-1.2976444,0.50824094,-12.948885,-5.3409534,0.14864348,-6.3712287,-4.8554277,15.452422,-18.347044,-3.9443746,0.45731863,-14.647949,-1.5114989,-3.0595787,-13.459047,-21.839104,16.623001,-5.5790324,9.7928505,9.529466,-2.0570703,-4.7604713,4.672024,-11.216194,-0.07460602,-5.3948956,-2.930551
31.406454,-57.377453,-7.2616124,29.121162,3.6881683,-10.573132,-7.955986,7.535879,-15.922603,9.802168,-6.500792,10.197831,3.9051867,3.2240787,-16.597801,-2.8545651,0.8127944,-17.441599,-1.7382123,2.863912,-4.0747232,-0.48220676,8.848665,-20.108747,-1.2960958,0.50661,-11.488201,-5.297674,0.14564139,-5.779754,-4.878647,15.520384,-17.100992,-3.9234767,0.42641398,-12.500422,-1.4366814,-3.084013,-12.451775,-21.92635,16.689806,-5.595747,9.797992,9.525247,-3.0371583,-4.8108454,4.7612133,-13.547384,-0.12861955,-5.3738523,-4.5933166
32.74805,-60.236576,-6.841986,30.668127,4.2945538,-10.8651085,-8.377759,7.881384,-15.872507,10.390381,-6.7806897,12.293538,3.987118,3.272877,-15.969432,-2.9266882,0.8182621,-15.69338,-1.7999184,2.9509087,-2.4600425,-0.49341974,9.25013,-19.495792,-1.3024256,0.50302684,-9.513938,-5.3960457,0.08956457,-4.778361,-5.0678787,16.364351,-16.806637,-4.024342,0.39494708,-11.061924,-1.3938648,-3.2167895,-11.868678,-23.040667,17.516087,-5.8070707,10.2395525,10.005827,-3.5782957,-5.0039697,4.9640183,-14.646771,-0.14569654,-5.5670557,-5.2322283
31.878521,-58.37053,-7.102658,29.684473,3.9407656,-10.659658,-8.109797,7.668492,-16.054594,10.025729,-6.6062818,10.914258,3.9222872,3.2140582,-15.8904505,-2.8838236,0.8165081,-15.707367,-1.7736794,2.9045572,-2.8075588,-0.4884005,8.986444,-19.52597,-1.2977085,0.5040878,-9.947115,-5.2996655,0.10331762,-5.0415516,-4.953942,15.817877,-16.825455,-3.9549165,0.40527207,-11.542615,-1.4049593,-3.1455083,-12.005803,-22.331348,16.993692,-5.6772604,9.94901,9.627488,-3.6977992,-4.897049,4.85417,-14.401923,-0.1438384,-5.4448667,-5.0297937
33.65857,-61.52609,-7.747067,31.211243,3.779018,-11.370279,-8.421161,7.975457,-17.605158,10.434481,-6.8784156,10.892318,4.069498,3.231956,-17.465893,-2.9541104,0.817057,-17.811861,-1.7923772,2.9722853,-3.576054,-0.49340943,9.361061,-20.350723,-1.3063122,0.502353,-9.4771385,-5.468239,0.07123368,-4.6352644,-5.1338205,16.724283,-17.41252,-4.0825047,0.39808872,-11.450076,-1.4224674,-3.2562406,-12.193021,-23.484657,17.84249,-5.890377,10.45953,10.407067,-2.3165767,-5.043981,4.97265,-12.988149,-0.1064821,-5.670464,-4.2040806
31.76792,-59.378338,-4.9107013,30.45038,4.8677907,-10.462019,-8.498217,7.8886647,-12.93857,10.535083,-6.772383,14.98036,3.9397492,3.1649508,-15.262834,-2.9125926,0.8171852,-16.393524,-1.7832971,2.928273,-3.2440827,-0.5017497,9.126588,-18.178589,-1.3000897,0.5034165,-9.624788,-5.3810062,0.12013787,-5.016351,-5.0410075,16.291285,-15.451322,-3.989902,0.3848791,-10.371199,-1.3467319,-3.1983995,-11.327548,-22.853054,17.383804,-5.7718163,10.198167,10.25715,-2.7853918,-4.9778595,4.963221,-15.269642,-0.18594828,-5.5102577,-6.255991
33.654213,-61.247227,-8.521517,30.861553,2.635791,-11.880956,-8.330045,7.8935895,-17.848175,10.108593,-6.789716,7.7239547,3.9997926,3.307591,-15.8327265,-2.9400177,0.81512386,-18.618502,-1.7495211,2.9505925,-5.202979,-0.51103127,9.132523,-19.31785,-1.3072644,0.50496066,-11.267466,-5.556798,0.1181831,-6.0642724,-5.114605,16.520151,-16.738981,-4.0949254,0.43745497,-14.073133,-1.4799147,-3.2063746,-13.161395,-23.312733,17.708982,-5.85074,10.418791,10.76001,-1.4669362,-5.0297213,4.9622455,-13.403339,-0.15017197,-5.6223493,-4.812265
32.919266,-59.881824,-8.167881,30.281664,3.1497338,-11.340683,-8.186915,7.771045,-17.460184,10.064638,-6.7032676,9.3002825,3.9803987,3.2536333,-16.472555,-2.9109573,0.81523395,-17.576494,-1.7631066,2.924759,-3.9147222,-0.4959253,9.073232,-19.945133,-1.3030521,0.50543725,-11.38921,-5.442359,0.11976046,-5.652316,-5.02591,16.258211,-16.806927,-4.0169625,0.41300073,-11.9614725,-1.415966,-3.193512,-12.106869,-22.832775,17.357397,-5.763126,10.247844,10.4252405,-0.73829025,-4.8876777,4.8137097,-10.711011,-0.08554442,-5.564672,-3.2938728
32.74124,-60.56934,-6.350541,30.836767,3.9855778,-11.107034,-8.491191,7.9406915,-14.987811,10.460897,-6.8146234,12.502912,3.9395895,3.2442706,-14.125303,-2.935769,0.8201711,-14.672786,-1.8029995,2.961886,-2.282955,-0.512011,9.158993,-18.026855,-1.3038124,0.50382125,-10.156208,-5.465387,0.11209614,-5.3020105,-5.1001215,16.534868,-15.322824,-4.0306363,0.3846899,-10.365369,-1.3419518,-3.2504954,-11.13816,-23.193876,17.628967,-5.833417,10.384909,10.7156925,-1.3370805,-4.982516,4.9473124,-12.877126,-0.15198289,-5.5975943,-5.013098
33.163456,-61.036114,-6.9624305,31.020117,3.5802047,-11.410948,-8.478086,7.9686723,-16.033606,10.40627,-6.8548098,11.054728,3.9988377,3.2051382,-15.630756,-2.9455156,0.81747687,-17.448332,-1.7755016,2.9600449,-4.1256175,-0.50960904,9.193982,-18.782871,-1.305893,0.50350976,-10.349864,-5.516609,0.11118283,-5.4818025,-5.125373,16.653698,-15.965326,-4.0696073,0.400004,-11.703254,-1.4000821,-3.2429225,-11.98352,-23.37133,17.762018,-5.867513,10.465444,10.832571,-1.0951601,-5.0242186,4.9686403,-13.003185,-0.14741017,-5.633222,-4.9345536
32.322735,-60.195038,-5.4807377,30.765024,4.4170747,-10.844506,-8.528969,7.9425726,-13.875605,10.499387,-6.8180795,13.391344,3.972518,3.1807673,-15.58702,-2.929739,0.8165925,-17.594084,-1.7685848,2.9390645,-4.35331,-0.5054835,9.154804,-18.56904,-1.3035717,0.5041031,-10.412698,-5.4736223,0.13369346,-5.580383,-5.089065,16.43507,-15.75455,-4.0386324,0.4002991,-11.60151,-1.39593,-3.203504,-12.018209,-23.123905,17.580904,-5.82236,10.319009,10.493808,-2.364912,-5.031087,5.003835,-15.280934,-0.19165275,-5.5583706,-6.2398577
34.087833,-62.00395,-8.421691,31.362375,3.3548589,-11.665608,-8.406353,7.991265,-18.565195,10.38776,-6.89229,9.646716,4.085849,3.2338915,-17.615482,-2.9625254,0.8167557,-18.223093,-1.78829,2.9790215,-3.8340538,-0.49757543,9.360212,-20.411268,-1.3074921,0.50178754,-9.332512,-5.4828367,0.057080265,-4.5228395,-5.155826,16.825462,-17.428083,-4.1024337,0.4015035,-11.663838,-1.4321064,-3.2709217,-12.300856,-23.624594,17.942022,-5.914374,10.538407,10.601008,-1.5867895,-5.041999,4.957845,-11.918185,-0.08498511,-5.707499,-3.5570922
33.26523,-60.25746,-9.090283,30.238764,3.3843381,-11.196397,-8.1212435,7.702798,-17.92695,9.894978,-6.615833,7.8537245,4.081213,3.4944017,-20.371561,-2.8950763,0.8035119,-24.176796,-1.6886177,2.8680148,-8.019025,-0.4696223,9.227799,-23.647102,-1.3067752,0.51324004,-15.914641,-5.6092896,0.23625481,-7.945822,-4.9874387,16.024359,-20.582636,-4.077125,0.51815414,-17.906141,-1.633351,-3.045826,-15.535532,-22.764612,17.286951,-5.7348127,10.068278,9.538812,-4.053417,-4.935577,4.891962,-14.311248,-0.120082706,-5.5054007,-4.636553
33.205475,-60.365986,-8.296419,30.513935,3.1524446,-11.436461,-8.22333,7.8174195,-17.985865,10.1165495,-6.7298913,9.0284815,3.9824576,3.1825504,-16.20072,-2.9237773,0.8169447,-16.759632,-1.7805777,2.946015,-3.2764437,-0.503566,9.097364,-19.053637,-1.3014793,0.50105095,-8.102636,-5.337048,0.035695672,-4.035135,-5.061453,16.350214,-16.652102,-4.0295877,0.4044552,-11.606809,-1.4060395,-3.2232413,-12.005317,-23.002857,17.483816,-5.7980347,10.261832,10.249189,-2.4325104,-4.9657707,4.902585,-12.852814,-0.11504771,-5.5861664,-4.0967455
33.592396,-61.184788,-8.153595,31.006441,4.1212544,-11.09547,-8.365208,7.9146914,-17.452948,10.402238,-6.798538,11.298787,3.977148,3.3989732,-14.655176,-2.9444222,0.8227044,-12.315242,-1.851897,2.9907904,0.3149893,-0.49675784,9.399987,-19.003508,-1.3028692,0.50121546,-7.9170675,-5.35071,0.03104607,-3.7428987,-5.1056795,16.548302,-16.934984,-4.038987,0.3869078,-10.372055,-1.36612,-3.270369,-11.3949795,-23.28126,17.686096,-5.849227,10.2907295,9.823579,-4.723869,-5.0318537,5.0012617,-14.5487175,-0.13208134,-5.6207304,-4.7533636
31.323439,-56.9454,-7.7160945,28.86275,3.1959956,-10.742093,-7.860811,7.4822187,-16.615866,9.639511,-6.4556956,8.691892,3.8705447,3.1379633,-15.973496,-2.8473065,0.8135999,-16.956139,-1.7344487,2.8605254,-3.9985316,-0.48954976,8.71843,-19.279823,-1.2940197,0.504862,-10.327633,-5.2366905,0.113255255,-5.3172483,-4.8611145,15.415992,-16.645603,-3.9070354,0.42279965,-12.539973,-1.4267786,-3.0834694,-12.316213,-21.774319,16.581993,-5.5717745,9.746948,9.543449,-2.985106,-4.7978606,4.7451873,-13.51563,-0.13843766,-5.3532023,-4.595354
34.679764,-62.553986,-9.608927,31.518444,3.3121307,-11.761883,-8.374793,7.9953966,-19.726126,10.3252735,-6.8986797,8.331636,4.1158247,3.4753532,-17.96381,-2.9699888,0.8171788,-17.971413,-1.8001077,2.9936337,-3.476207,-0.48500484,9.554838,-21.801584,-1.3106105,0.50404674,-11.03921,-5.5700455,0.083317235,-5.400594,-5.1732464,16.781096,-19.042341,-4.1417975,0.43012592,-13.882852,-1.5183716,-3.2479653,-13.622287,-23.737886,18.022663,-5.9345503,10.494492,10.070301,-4.0690355,-5.1224074,5.0413346,-14.358241,-0.10949878,-5.711254,-4.2980886
32.510048,-57.86669,-10.824187,28.793468,1.6195172,-11.60001,-7.6661367,7.375087,-19.470406,9.132004,-6.3483257,2.8251438,3.932941,3.608527,-17.914354,-2.83961,0.80474573,-22.524881,-1.6575315,2.8220453,-7.9182487,-0.47340474,8.800153,-23.042849,-1.3045712,0.5187564,-19.692974,-5.647348,0.31591293,-10.088857,-4.8436093,15.313961,-19.686647,-3.9974499,0.5376413,-19.239473,-1.6382935,-2.9768064,-15.440031,-21.821117,16.59363,-5.560666,9.803314,9.704352,-1.1307129,-4.71846,4.634824,-10.325879,-0.078530945,-5.3807893,-2.7835274
32.615314,-58.968437,-8.777125,29.731691,2.9237852,-11.251095,-8.009594,7.6366143,-17.891735,9.796469,-6.5896053,7.770361,3.9588022,3.3196297,-16.849937,-2.8855872,0.8127977,-18.30666,-1.73873,2.8955426,-4.6000357,-0.48843196,8.983844,-20.52321,-1.3011156,0.5066673,-11.981219,-5.410514,0.13543028,-6.069196,-4.9615636,15.863496,-17.608675,-3.997808,0.44161776,-13.846049,-1.4854474,-3.121904,-13.1671,-22.436129,17.061686,-5.687952,10.02088,9.867815,-2.5256221,-4.880094,4.8105283,-12.865442,-0.114348635,-5.47613,-4.0567193
33.073864,-59.85052,-8.839563,30.162437,2.9659312,-11.400301,-8.121874,7.716853,-17.701157,9.934672,-6.6543612,8.312329,4.020973,3.3519933,-18.317066,-2.8990536,0.81009275,-21.28472,-1.7241478,2.8950863,-6.0049043,-0.4853217,9.118294,-21.371008,-1.3044474,0.5088787,-13.758942,-5.5108566,0.16862373,-6.6557126,-4.9974756,16.177309,-17.882767,-4.033584,0.4509556,-14.200852,-1.4925711,-3.1402478,-13.306608,-22.752571,17.290144,-5.7384095,10.209745,10.296179,-0.46982503,-4.8513336,4.7708507,-10.143772,-0.06285397,-5.549425,-2.7575517
31.178766,-57.574394,-5.995102,29.398342,3.9911337,-10.506025,-8.139704,7.639835,-14.42653,10.07495,-6.565844,12.388889,3.85871,3.0237186,-14.818221,-2.8690314,0.81629443,-15.356714,-1.7691286,2.8870816,-2.65079,-0.5062624,8.765308,-17.390047,-1.2930418,0.5012595,-7.721434,-5.164055,0.06057601,-3.8357189,-4.9217973,15.791272,-14.797653,-3.9001155,0.3777979,-9.308972,-1.3016171,-3.1657565,-10.557826,-22.118174,16.838448,-5.6352863,9.941077,10.059515,-1.5884149,-4.796818,4.76669,-12.222628,-0.12782893,-5.41701,-4.4418807
35.471043,-65.16544,-7.838478,33.050026,4.299575,-11.854585,-8.981363,8.376221,-16.355286,11.026081,-7.1872478,12.21826,4.1702538,3.7134798,-16.729078,-3.0322912,0.8189664,-18.856588,-1.8203735,3.051324,-4.155403,-0.49983206,9.964172,-21.191195,-1.3203819,0.5072977,-14.218279,-5.8956103,0.17654811,-7.3777065,-5.3567824,17.587305,-18.232279,-4.262121,0.43314582,-14.846096,-1.5232258,-3.3188822,-14.064783,-24.832262,18.831741,-6.1304617,10.965354,10.938958,-3.4655492,-5.3118653,5.2672772,-16.269182,-0.17942731,-5.8565397,-6.2439995
31.31701,-57.764065,-6.135762,29.491072,4.107726,-10.478406,-8.150086,7.654377,-14.615803,10.119801,-6.5788474,12.723944,3.8553524,3.0580442,-14.45974,-2.8729825,0.8181326,-14.091477,-1.7901328,2.899218,-1.5773737,-0.5041736,8.828751,-17.395224,-1.2931759,0.5012951,-7.659074,-5.161762,0.055121202,-3.6933074,-4.92834,15.8551855,-14.85332,-3.897274,0.3696963,-8.722819,-1.2801094,-3.185413,-10.205679,-22.171791,16.877726,-5.645412,9.957885,10.020772,-1.7371398,-4.794807,4.7665095,-11.824941,-0.11851428,-5.4327536,-4.1787906
31.509102,-57.385212,-7.587735,29.072512,2.743011,-11.071781,-7.9137325,7.537078,-16.922237,9.706973,-6.4999156,8.654941,3.8513906,2.9475653,-15.101693,-2.8596044,0.815408,-16.210283,-1.7468675,2.8778896,-3.4909797,-0.50784063,8.614548,-17.607994,-1.2928898,0.5016524,-8.001023,-5.17297,0.051922143,-4.0416346,-4.89361,15.7063675,-15.116303,-3.8994756,0.39191058,-10.292425,-1.33074,-3.155639,-10.836012,-21.964235,16.724634,-5.6081963,9.923703,10.271638,-0.29746658,-4.7493167,4.686087,-10.204361,-0.09947724,-5.420435,-3.2871375
32.60842,-59.383884,-7.8850436,30.081839,3.268504,-11.191934,-8.148426,7.736533,-17.319122,10.04267,-6.6555715,9.515848,3.930193,3.103553,-15.450537,-2.9041781,0.8172291,-15.688686,-1.7817603,2.9294357,-2.6046946,-0.50706255,8.963564,-18.071257,-1.2973498,0.49968085,-6.7503395,-5.225973,0.012558185,-3.3461938,-5.0095477,16.142883,-15.942331,-3.9802742,0.39410067,-10.725503,-1.3659139,-3.2081063,-11.411859,-22.671478,17.241207,-5.7373734,10.121036,10.085588,-2.663938,-4.9142694,4.8652096,-13.069393,-0.12544104,-5.5238156,-4.306037
39.73514,-71.78874,-12.309981,36.09253,11.936763,-8.946719,-10.1635065,8.841444,-9.435146,10.838521,-7.4802666,1.1411747,5.485269,5.9698706,-58.73517,-3.0578163,0.6942813,-101.95249,-0.89951146,2.4642644,-63.58171,-0.2318573,12.294847,-69.86159,-1.4255402,0.6585617,-112.29663,-10.686204,3.1176882,-65.946304,-5.357306,17.917229,-72.995766,-5.549283,2.1339896,-117.76814,-4.8423834,-1.0190269,-70.98948,-26.75736,20.204187,-6.4476256,9.328443,2.7718763,-66.25767,-7.6765842,8.791725,-113.24789,-2.2521317,-4.859841,-63.325935
35.4558,-64.11747,-10.630764,32.297813,10.054927,-8.422782,-9.144316,8.07243,-9.366584,9.929278,-6.865409,2.6237016,4.9256973,5.220697,-47.456516,-2.9055579,0.7202295,-80.47821,-1.0567043,2.45392,-49.132416,-0.27975,10.968308,-57.392918,-1.3823276,0.62587535,-89.48077,-9.193668,2.4738772,-52.527836,-4.9704213,16.189354,-59.763405,-4.9962626,1.7699775,-94.478584,-4.0579724,-1.3168765,-57.61541,-23.997639,18.176008,-5.9401393,8.665417,3.2816358,-54.180897,-6.840432,7.7444277,-93.517876,-1.8521287,-4.637035,-51.666374
34.87,-63.442474,-9.703198,32.040287,10.2506275,-8.206092,-9.159651,8.048366,-8.072408,9.96858,-6.8528366,3.9411216,4.936611,5.0463467,-48.869965,-2.890986,0.7146659,-83.765915,-1.0131791,2.4143734,-51.463158,-0.28296173,10.833568,-57.075386,-1.3803439,0.62567145,-89.16046,-9.147844,2.4756355,-52.403286,-4.9391646,16.092098,-59.0784,-4.968109,1.7619634,-93.90454,-4.042443,-1.2939804,-57.473194,-23.799028,18.031963,-5.9045362,8.639542,3.4044995,-52.599033,-6.7669353,7.6642427,-91.766846,-1.8282053,-4.6096797,-51.07203
34.615826,-62.79669,-9.986504,31.679825,9.960771,-8.221462,-9.039486,7.9616,-8.448524,9.815453,-6.773291,3.2478118,4.878326,5.0622377,-47.51854,-2.876374,0.71763414,-81.421364,-1.0320477,2.4159575,-49.88001,-0.28446046,10.739736,-56.35758,-1.3775525,0.6246574,-88.34943,-9.06337,2.4468825,-51.84704,-4.899068,15.92036,-58.523357,-4.9288526,1.7493725,-92.987366,-3.9982538,-1.30332,-56.720043,-23.54472,17.844381,-5.8562403,8.550634,3.362846,-52.29893,-6.7076206,7.599119,-90.89287,-1.8113817,-4.579627,-50.500057
34.46859,-62.6756,-9.645724,31.664825,9.535493,-8.454277,-9.062327,7.97867,-8.316515,9.773514,-6.7603173,2.4819598,4.77675,4.788028,-44.302692,-2.883399,0.7258509,-76.909035,-1.0736336,2.4554553,-47.311554,-0.31214857,10.543014,-52.88961,-1.3719885,0.6152017,-82.104706,-8.835524,2.3077295,-48.81355,-4.920636,16.016418,-56.41273,-4.9102283,1.7202097,-91.21042,-3.9171982,-1.3563615,-55.413578,-23.57627,17.874702,-5.8674297,8.545985,3.7112498,-53.3546,-6.8019123,7.7248416,-94.214424,-1.9063269,-4.559173,-52.408073
33.999893,-62.65968,-7.6875606,32.0961,12.709034,-6.875456,-9.566351,8.153871,-2.4258869,10.098138,-6.9102826,4.7163186,5.2184486,4.984732,-60.813423,-2.8690486,0.6752125,-110.04284,-0.7051003,2.1830885,-71.019424,-0.24227642,10.894809,-66.75481,-1.4015037,0.6632606,-112.92125,-10.263058,3.2444134,-67.074135,-4.883648,16.007713,-69.35246,-5.1851315,2.1242704,-115.98038,-4.709469,-0.7203587,-69.720116,-23.772976,18.033613,-5.912708,8.282813,2.174849,-62.342377,-7.1096535,8.288415,-108.84082,-2.270903,-4.321574,-63.285778
34.114433,-63.08686,-7.4484262,32.292065,12.803478,-6.904223,-9.645492,8.19068,-1.8937191,10.12096,-6.9223356,4.6171665,5.211941,4.848036,-60.745827,-2.8746886,0.6752547,-110.77472,-0.6985467,2.1859777,-71.62997,-0.24922918,10.889441,-66.19704,-1.401504,0.66219723,-111.815094,-10.246791,3.2328,-66.68567,-4.895835,16.170965,-69.8906,-5.2154536,2.1632,-117.954865,-4.757928,-0.68518215,-70.63591,-23.913511,18.133213,-5.9342003,8.241093,2.1809297,-64.843796,-7.2405844,8.482397,-113.73392,-2.3918808,-4.2850833,-66.167625
35.69929,-64.564766,-10.549178,32.817272,12.144488,-7.495171,-9.548016,8.222478,-5.802309,9.925698,-6.9379053,0.13027081,5.206754,5.6000757,-57.407814,-2.908434,0.68757194,-102.96895,-0.8001834,2.2771404,-66.15857,-0.22846971,11.298675,-69.00258,-1.4109458,0.6705463,-118.21528,-10.603636,3.3682013,-70.04044,-4.9644184,16.294786,-72.82412,-5.303483,2.2071352,-121.15663,-4.8471336,-0.71128994,-71.82137,-24.348598,18.455658,-6.016491,8.321972,1.7937106,-68.05345,-7.365471,8.603421,-116.211426,-2.405086,-4.3654065,-66.72386
38.23483,-69.28454,-11.163076,35.204357,13.098683,-7.9472384,-10.191244,8.721999,-5.969454,10.546395,-7.330255,-0.37380287,5.5158186,5.822421,-63.279266,-3.0068624,0.67537224,-114.29466,-0.7295628,2.305498,-73.60489,-0.2138727,12.012323,-74.408325,-1.4325157,0.68272126,-126.972046,-11.300785,3.6222322,-75.35239,-5.220108,17.471804,-79.115715,-5.611835,2.3769937,-132.24414,-5.2176795,-0.6092276,-78.17487,-26.098791,19.746769,-6.3422794,8.806126,1.8036116,-74.095924,-7.8585377,9.206502,-126.47809,-2.621217,-4.541564,-72.849724
33.420124,-60.794025,-9.000539,31.044954,11.782941,-6.9579496,-9.152464,7.888947,-4.4302497,9.651707,-6.681774,2.732773,4.9957047,5.1688733,-54.379223,-2.8328316,0.6934265,-96.97316,-0.83504695,2.2388396,-61.931698,-0.24665952,10.69174,-63.78894,-1.3913448,0.65652406,-108.42668,-9.919218,3.0899312,-64.11288,-4.7765265,15.480272,-66.65064,-5.0402136,2.0334466,-110.18629,-4.490058,-0.82965785,-65.8686,-23.026144,17.48391,-5.7734127,8.035926,2.0059364,-61.260612,-6.9210644,8.052055,-105.19249,-2.180202,-4.262468,-60.50957
33.821777,-62.112366,-8.021023,31.827236,12.736521,-6.7510657,-9.480207,8.087318,-2.607613,9.982495,-6.8495436,4.1656427,5.1806793,5.074438,-59.89083,-2.8573623,0.6779814,-108.066475,-0.724628,2.1856081,-69.61345,-0.23743087,10.884954,-66.92359,-1.4001846,0.66451037,-113.669334,-10.2615385,3.266581,-67.48826,-4.847918,15.853953,-69.80927,-5.1680927,2.136214,-116.649414,-4.717359,-0.696505,-69.90424,-23.571625,17.887524,-5.8760624,8.153197,1.8937293,-63.82805,-7.1162634,8.315534,-110.581604,-2.3027673,-4.27172,-64.13329
37.796654,-70.19464,-7.758814,35.928314,15.018143,-7.1754837,-10.629809,8.956422,-1.275957,11.302363,-7.6063037,7.601336,5.7084684,5.6112776,-69.57404,-3.0232077,0.6592331,-125.083595,-0.623461,2.239674,-80.84424,-0.20716864,12.202627,-75.94515,-1.4374878,0.6852612,-128.72273,-11.438324,3.692438,-76.51383,-5.2876997,17.76194,-78.04115,-5.637746,2.3379078,-130.2404,-5.244313,-0.6012296,-78.86357,-26.49977,20.030851,-6.4105864,9.061303,2.1077337,-70.409485,-7.8258486,9.130719,-123.0653,-2.5361097,-4.607517,-71.535126
32.881596,-60.163696,-8.125781,30.798706,11.809513,-6.84263,-9.126884,7.855317,-3.655357,9.686782,-6.6718464,4.14363,4.96915,5.0432644,-54.14766,-2.8210926,0.6933872,-96.55411,-0.83052945,2.2282035,-61.79229,-0.25230747,10.558867,-62.53621,-1.3878564,0.65312254,-105.984505,-9.783455,3.0289142,-62.735313,-4.754058,15.360491,-64.71619,-4.986698,1.9828907,-106.97681,-4.40221,-0.8692542,-64.36024,-22.837225,17.343197,-5.736311,8.045875,2.2470403,-58.704628,-6.820118,7.911483,-101.954475,-2.1138656,-4.2606864,-58.73871
35.331573,-63.812614,-10.420546,32.518364,12.169384,-7.351886,-9.479439,8.175485,-5.788471,9.911653,-6.912441,0.6344069,5.2183495,5.66085,-58.217556,-2.8974233,0.685552,-103.830696,-0.7908404,2.258019,-66.575455,-0.2210396,11.246698,-69.7244,-1.4109207,0.67282087,-119.89302,-10.625844,3.3999987,-70.645004,-4.9369173,16.098913,-72.2877,-5.264548,2.1716766,-119.25227,-4.794881,-0.7308608,-70.89862,-24.128927,18.299894,-5.981063,8.358227,1.8638265,-64.81215,-7.197897,8.375743,-110.3328,-2.2750354,-4.3908424,-63.52937
32.15016,-58.361656,-8.825179,29.776937,10.730226,-7.013518,-8.768608,7.624622,-5.258893,9.315841,-6.4654555,2.5870068,4.8044853,4.931882,-50.178802,-2.7851198,0.7033216,-88.794495,-0.90059817,2.2496185,-56.22532,-0.26581752,10.224082,-59.064423,-1.3756218,0.6421757,-98.82636,-9.323322,2.8019874,-58.23109,-4.6582623,14.897349,-61.360214,-4.8426356,1.8776023,-100.42125,-4.1719174,-0.98496175,-60.286,-22.127392,16.822512,-5.608221,7.9022794,2.3819928,-55.19315,-6.5679426,7.5795836,-95.07134,-1.9619893,-4.240854,-54.373608
32.27315,-58.559795,-8.942087,29.825932,10.549406,-7.133544,-8.755863,7.6263795,-5.601803,9.314022,-6.4648895,2.4788918,4.803776,4.853262,-50.165955,-2.7868872,0.70352244,-88.71452,-0.9043944,2.255431,-55.957844,-0.2705227,10.210196,-58.34691,-1.3736308,0.63881016,-96.55098,-9.221359,2.7318919,-56.893772,-4.66432,14.951686,-60.83308,-4.836048,1.8627865,-99.42977,-4.143357,-1.0132053,-59.75592,-22.168936,16.849972,-5.613406,7.929348,2.4548218,-54.707222,-6.558936,7.5604153,-94.26569,-1.9423012,-4.2606735,-53.764324
33.881554,-61.936844,-8.679263,31.588753,11.674076,-7.2373695,-9.333571,8.014999,-4.0604944,9.80444,-6.7655296,2.5977516,5.0732956,4.9070463,-56.62794,-2.8529787,0.6863717,-102.57492,-0.78264517,2.2276332,-65.63306,-0.25935817,10.69558,-63.334167,-1.3922977,0.6529023,-106.03462,-9.886763,3.033508,-62.88849,-4.8385878,15.843431,-66.892944,-5.103604,2.061584,-111.85716,-4.5462236,-0.8202535,-66.83592,-23.448147,17.792507,-5.8490553,8.197607,2.356485,-61.287125,-7.0170727,8.169176,-106.53384,-2.224484,-4.312633,-61.48805
35.271126,-64.720406,-8.733644,32.941486,12.351262,-7.4224987,-9.691687,8.290505,-3.7770357,10.211239,-7.017338,3.5946903,5.235713,5.1348667,-59.245975,-2.9076722,0.6816193,-107.04441,-0.7559502,2.2521396,-68.709114,-0.24997385,11.14542,-66.14428,-1.4044676,0.6592161,-110.72691,-10.2687235,3.165726,-65.841156,-4.9835787,16.445093,-69.43632,-5.2582817,2.1269565,-116.282555,-4.7274513,-0.7896856,-69.85945,-24.411802,18.491793,-6.0208397,8.469951,2.3809805,-63.93967,-7.275588,8.462072,-111.70539,-2.3168526,-4.4119477,-64.33815
33.52632,-60.558685,-9.887156,30.80881,10.107649,-7.7839403,-8.989564,7.846552,-6.9905195,9.440406,-6.614709,-0.29047003,4.938315,5.0624194,-52.106888,-2.8369298,0.6980296,-93.94823,-0.8635173,2.2725759,-59.785797,-0.269683,10.414976,-61.208332,-1.3860931,0.6477927,-103.16947,-9.685286,2.9110098,-60.78469,-4.798297,15.4435835,-63.627144,-4.989939,1.936762,-104.73229,-4.294205,-0.99087036,-62.248447,-22.976439,17.461946,-5.7768574,8.2997875,2.9500184,-54.402134,-6.6809816,7.68193,-94.22743,-1.9522426,-4.408264,-54.307262
32.97799,-60.300278,-8.28319,30.797962,11.138389,-7.2075186,-9.083135,7.8572884,-4.660554,9.647686,-6.656763,3.325127,4.9261703,4.7615347,-52.67301,-2.8283598,0.6980549,-93.97246,-0.860826,2.2601564,-59.829063,-0.27243483,10.4165745,-59.69712,-1.3813701,0.6413733,-98.4333,-9.453375,2.8114047,-58.44653,-4.7742267,15.454374,-62.640114,-4.9564986,1.9239796,-103.44213,-4.2868385,-0.9670691,-62.263676,-22.87737,17.375456,-5.7484436,8.121458,2.5858521,-57.35001,-6.799185,7.8585176,-100.09447,-2.0728278,-4.310648,-57.3595
40.878376,-75.03823,-10.631016,37.77169,11.699193,-9.766717,-10.868095,9.301455,-7.0459414,11.290824,-7.726478,-0.82539463,5.8040304,4.452057,-70.41944,-3.1182077,0.6563574,-131.13725,-0.6036822,2.3462787,-83.49568,-0.29492083,12.007197,-68.05346,-1.4248011,0.64475024,-102.771454,-10.544421,2.9370296,-61.916428,-5.562525,19.170214,-75.64215,-5.8119082,2.3170254,-129.51738,-5.1787415,-0.8473966,-77.32191,-28.113976,21.222816,-6.716056,9.747142,3.627738,-70.05297,-8.145771,9.44117,-124.18606,-2.5748773,-4.946838,-70.97984
30.099646,-56.210648,-5.327321,28.403402,1.4660637,-11.559913,-8.018384,7.4667616,-12.817914,9.3996,-6.341137,6.8350735,3.5974677,2.6779354,-9.272198,-2.826678,0.81351036,-16.541027,-1.6626965,2.8340893,-6.661466,-0.5808355,7.8894,-10.523968,-1.2853115,0.49712324,-3.370365,-5.0545506,0.004111007,-3.3819182,-4.87074,15.318675,-10.503168,-3.8753886,0.4323292,-13.001427,-1.3210812,-3.083013,-11.220908,-21.58438,16.43741,-5.5227375,9.760164,11.148907,-0.8422661,-4.846818,4.8669186,-17.44011,-0.34668154,-5.2436647,-8.618322
31.223297,-59.014114,-4.285732,29.957888,2.083467,-11.835179,-8.501014,7.8370647,-12.0191145,10.101304,-6.644002,10.419892,3.647408,2.7713716,-7.38944,-2.9022834,0.82194036,-12.452726,-1.7476584,2.9298537,-3.6528933,-0.59714776,8.223417,-9.959166,-1.2943639,0.49738276,-4.116482,-5.268678,0.023671456,-3.6299376,-5.061731,16.25166,-9.203709,-3.9538507,0.37087667,-8.996123,-1.1852325,-3.2600589,-9.092187,-22.699558,17.265198,-5.736289,10.350073,12.36284,2.5622113,-4.905167,4.911425,-13.11149,-0.28529173,-5.480559,-7.1390176
29.89598,-56.35845,-4.297555,28.61061,1.710226,-11.494619,-8.156472,7.5509295,-11.794329,9.642106,-6.408184,9.10598,3.5510302,2.6375237,-7.1781154,-2.8412752,0.81931126,-12.714635,-1.7103226,2.8637545,-4.1967964,-0.59354305,7.8480597,-9.381722,-1.2864977,0.49765584,-3.7180386,-5.0943785,0.022672288,-3.4677448,-4.902254,15.551337,-8.8115225,-3.8492913,0.37989566,-9.260852,-1.1779021,-3.1689446,-8.980545,-21.723001,16.547443,-5.555782,9.952466,11.898072,2.4640036,-4.755886,4.765988,-12.915008,-0.2891726,-5.3092175,-7.022466
32.9542,-62.297653,-4.57928,31.58624,2.3554664,-12.348987,-8.895627,8.172879,-12.608009,10.619623,-6.922806,11.463728,3.7857385,2.917467,-8.4731,-2.9739232,0.8228884,-13.832059,-1.7769332,3.0013561,-3.9129984,-0.6010789,8.677862,-10.816597,-1.3032659,0.49623662,-4.097723,-5.450427,0.0037696958,-3.4801948,-5.2509127,17.12302,-9.913747,-4.087386,0.3693689,-9.327344,-1.2122486,-3.3627934,-9.565179,-23.893425,18.140636,-5.95344,10.8331175,12.929686,2.7056875,-5.083889,5.0812445,-13.38405,-0.27024543,-5.6919966,-7.1123366
30.214935,-56.911694,-4.245783,29.021708,2.9500108,-10.953174,-8.26389,7.6285386,-11.437291,9.974627,-6.482774,12.208757,3.5989087,2.8510323,-7.6279283,-2.8555903,0.8229078,-10.048309,-1.7766738,2.893938,-1.1496325,-0.5716091,8.213393,-10.867472,-1.288266,0.49902555,-4.839032,-5.108147,0.03607291,-3.4053779,-4.921935,15.738527,-9.778836,-3.8445396,0.35425076,-7.384945,-1.1341498,-3.2123127,-8.299616,-21.920374,16.692081,-5.5920696,9.987758,11.40855,1.3684982,-4.745597,4.765531,-11.888286,-0.23522511,-5.3558593,-6.108909
28.483362,-53.55996,-4.003999,27.376575,2.676062,-10.437701,-7.871443,7.2881274,-10.676124,9.4581375,-6.207173,11.166517,3.5068474,2.6782575,-8.347004,-2.778766,0.8174962,-12.073356,-1.7161857,2.8019915,-2.8355823,-0.5622408,7.7789483,-10.733687,-1.2789564,0.50010735,-5.2286386,-4.9198103,0.054955453,-3.5837548,-4.723362,14.881989,-9.541477,-3.7208114,0.36934254,-8.104419,-1.1431742,-3.0859833,-8.499117,-20.722036,15.81341,-5.370545,9.509546,10.838453,1.5207283,-4.556921,4.578675,-11.475999,-0.23291136,-5.1437874,-5.8857117
30.959593,-57.841038,-5.1873975,29.43032,3.3489373,-10.898047,-8.297585,7.6768456,-12.240048,10.08638,-6.538547,12.515353,3.691214,3.080241,-9.567094,-2.8678784,0.8207859,-11.468472,-1.7851534,2.9026222,-1.221945,-0.5494142,8.536491,-13.242292,-1.291872,0.50151217,-7.143313,-5.2031097,0.07141727,-4.158489,-4.945591,15.898035,-11.6834755,-3.8877664,0.37543395,-8.767216,-1.2066182,-3.2014065,-9.386094,-22.182844,16.87718,-5.6331224,10.03163,11.007857,0.11949208,-4.7817774,4.7970886,-12.242297,-0.20213798,-5.3993897,-5.6531277
31.083817,-57.54484,-6.1639366,29.154827,3.1895463,-10.873237,-8.139425,7.57904,-13.347771,9.886999,-6.472354,11.091486,3.7447643,3.1046383,-12.034706,-2.8505535,0.8154778,-14.781278,-1.7489234,2.869872,-2.9633477,-0.53217477,8.566292,-15.015345,-1.2912645,0.5026744,-7.997024,-5.180949,0.07860093,-4.3628283,-4.8946,15.717787,-13.352549,-3.890387,0.41037244,-10.851778,-1.2948663,-3.1368003,-10.691018,-21.97824,16.718185,-5.588893,9.8921585,10.535666,-0.92090505,-4.7661467,4.7745404,-12.775771,-0.18785363,-5.3587923,-5.378262
30.132734,-56.9274,-3.728139,29.182903,3.8409176,-10.515503,-8.327653,7.6657414,-10.776237,10.182881,-6.5337076,14.512422,3.6805818,2.8667612,-10.063995,-2.8569999,0.82023156,-12.215153,-1.7761968,2.8852017,-1.7210636,-0.55002075,8.413714,-12.669815,-1.2887784,0.49971944,-5.854034,-5.112192,0.05382459,-3.4649897,-4.9164357,15.81944,-10.904434,-3.8461285,0.3498008,-7.1321335,-1.1483362,-3.2036896,-8.53426,-21.977266,16.736376,-5.60295,9.990406,11.098549,0.9828019,-4.739688,4.7556276,-11.614651,-0.19758125,-5.3695235,-5.6306624
30.878332,-58.188595,-4.137448,29.792212,4.0645213,-10.637882,-8.456038,7.783469,-11.278346,10.369554,-6.6305156,14.875077,3.7168226,3.0270524,-9.697257,-2.8855076,0.82314193,-10.694685,-1.8106177,2.9236045,-0.4360327,-0.54737246,8.646142,-13.251835,-1.2930301,0.50064516,-6.7045755,-5.2115774,0.06635365,-3.8387115,-4.986494,16.106016,-11.436158,-3.8928418,0.34701502,-7.107153,-1.1552839,-3.2464771,-8.615522,-22.408098,17.051498,-5.6825647,10.143417,11.123808,0.4032199,-4.8083887,4.8252335,-11.854996,-0.19261271,-5.4460526,-5.6162815
31.89496,-59.317314,-5.703422,30.176544,3.0986094,-11.340073,-8.4106245,7.8286686,-13.782722,10.229021,-6.6892195,11.485796,3.8218176,2.9491692,-12.373069,-2.9048643,0.817971,-15.713456,-1.7632544,2.925568,-3.6182513,-0.5471973,8.702017,-14.242845,-1.2958817,0.49862581,-5.683497,-5.245264,0.019394234,-3.3554964,-5.0395503,16.341333,-12.646395,-3.9693594,0.3800288,-9.751026,-1.2642794,-3.2403665,-10.206124,-22.77588,17.321709,-5.7497873,10.280304,11.262269,0.25284111,-4.900902,4.8851657,-12.6315365,-0.18887739,-5.5175953,-5.4987745
31.49312,-58.820908,-5.1109385,30.04157,4.011879,-10.770648,-8.410705,7.802208,-12.886209,10.327287,-6.665697,13.573629,3.8057086,3.0643618,-11.942971,-2.8966134,0.82063186,-13.141604,-1.7962675,2.9266217,-1.6161674,-0.5316406,8.815903,-15.059992,-1.295464,0.50095916,-7.1250052,-5.251507,0.06275803,-3.9207063,-5.0080023,16.191593,-13.1767025,-3.9373136,0.36986077,-8.852421,-1.2435658,-3.2280755,-9.833741,-22.597235,17.189222,-5.7184277,10.158465,10.762881,-1.0370402,-4.8805666,4.882605,-13.20048,-0.18758851,-5.477951,-5.686585
30.795183,-58.124348,-4.141524,29.66441,4.8628964,-10.149334,-8.416555,7.7094455,-10.320726,10.325503,-6.5949244,15.868319,3.8103824,3.1852024,-13.580746,-2.8600893,0.81298226,-16.721117,-1.7422887,2.8620987,-3.9980123,-0.51456815,8.853231,-16.427332,-1.2949407,0.5066716,-10.801229,-5.3233423,0.17309462,-5.8725834,-4.9201717,15.898208,-14.30113,-3.918213,0.42497808,-11.618549,-1.3463621,-3.0972548,-11.601633,-22.232111,16.897652,-5.6266165,9.895123,10.236276,-2.9016445,-4.8798985,4.9327846,-16.469364,-0.2623381,-5.336051,-7.612164
33.490547,-63.00784,-4.891928,32.102947,4.311555,-11.452137,-8.96777,8.23576,-12.53265,10.993723,-7.0281835,15.324662,3.9914916,3.2188573,-14.018989,-2.9810781,0.81790507,-17.722963,-1.7938688,2.993998,-4.1291766,-0.5382573,9.343523,-16.282885,-1.3080492,0.5017401,-8.841395,-5.567483,0.09139111,-4.735024,-5.2406874,17.315592,-13.941485,-4.1193748,0.38828513,-10.406775,-1.3158863,-3.321344,-11.041112,-24.11634,18.29817,-5.98641,10.796439,11.781325,0.20474663,-5.1063285,5.1011934,-13.490196,-0.19311947,-5.7262053,-6.04999
31.285673,-58.766674,-4.5943146,30.040625,4.185182,-10.684572,-8.507793,7.8232136,-11.334892,10.393242,-6.6658564,14.432758,3.7648077,3.2129216,-10.603826,-2.8937993,0.8209021,-12.516602,-1.7966032,2.9247484,-1.5594788,-0.5368576,8.824152,-14.597439,-1.2967559,0.50369954,-9.208091,-5.34361,0.12180362,-5.1766233,-5.0115013,16.147932,-12.66457,-3.941679,0.37976378,-9.606673,-1.2480347,-3.2123728,-10.085616,-22.587765,17.180756,-5.712335,10.160582,10.888459,-0.98783994,-4.8842974,4.9056573,-13.94517,-0.22051537,-5.4539604,-6.4716682
31.765718,-59.555016,-4.833364,30.434824,4.2993674,-10.767728,-8.570626,7.8996367,-12.122188,10.558206,-6.7295036,15.094902,3.778159,3.1966424,-10.117312,-2.9138188,0.82461894,-10.05738,-1.8417984,2.959837,0.55042523,-0.54036963,8.9249115,-14.249306,-1.2968478,0.5008596,-7.2046137,-5.2850847,0.060863182,-3.8879795,-5.055752,16.40462,-12.3921385,-3.945117,0.34877628,-7.384914,-1.179019,-3.285358,-8.965855,-22.86088,17.381659,-5.764932,10.286776,11.014663,-0.6023223,-4.883728,4.8989663,-12.319815,-0.17837547,-5.5277295,-5.4853706
34.57659,-64.34425,-6.545236,32.563038,4.111676,-11.774105,-8.98451,8.28193,-13.913804,10.888368,-7.068332,12.673818,4.0747347,3.6422815,-15.278462,-2.999963,0.8152786,-20.220528,-1.770071,3.0042458,-5.914929,-0.51951385,9.668259,-19.031479,-1.3165989,0.5078918,-13.426813,-5.837515,0.19208929,-7.400379,-5.2935095,17.322247,-16.77338,-4.2278633,0.4651165,-16.01304,-1.5267618,-3.2498937,-14.255936,-24.472227,18.549484,-6.044493,10.801057,11.1896,-3.3182535,-5.28399,5.2815056,-18.404242,-0.2592472,-5.7408566,-7.9730897
32.921997,-62.891876,-3.242478,32.127666,5.463057,-10.834006,-9.103615,8.248042,-9.622669,11.167838,-7.047796,18.501173,4.014168,3.2680836,-15.376212,-2.9666057,0.8125754,-20.733461,-1.7515049,2.9533277,-6.4149537,-0.5261638,9.44604,-17.17666,-1.3093982,0.505946,-11.372586,-5.661233,0.18528235,-6.357548,-5.211487,17.210285,-14.6745615,-4.1256304,0.4274691,-12.581075,-1.4070245,-3.2253432,-12.627867,-24.039623,18.224682,-5.9551473,10.639044,11.369733,-2.2091584,-5.194647,5.2414117,-18.356913,-0.29740503,-5.6260433,-8.883535
32.348,-61.02957,-4.564627,31.026833,4.2870708,-11.025716,-8.698448,7.9866514,-11.870983,10.617866,-6.8154707,14.656617,3.9179757,3.092053,-14.253452,-2.9242153,0.8134961,-18.73093,-1.7454271,2.9248538,-5.2275805,-0.5333502,9.050441,-15.797365,-1.3003691,0.5009177,-7.5153766,-5.376668,0.07613264,-4.2270308,-5.095907,16.674078,-14.062545,-4.0381885,0.41765782,-11.7024355,-1.360269,-3.2029924,-11.709793,-23.295923,17.678896,-5.8219004,10.358071,11.076559,-1.9267268,-5.051982,5.0783134,-16.54521,-0.25795937,-5.533985,-7.507106
31.094858,-56.89907,-7.254694,28.766712,2.6792667,-11.006875,-7.937827,7.4730105,-14.865646,9.587504,-6.4173574,8.569383,3.798031,3.1795893,-14.19775,-2.8360915,0.81177783,-18.125248,-1.7043086,2.8403609,-5.261588,-0.51154107,8.559601,-17.436794,-1.2941918,0.5074766,-11.837174,-5.3140826,0.16357811,-6.3339934,-4.8508134,15.475932,-15.014274,-3.9047837,0.44371462,-13.466331,-1.4031526,-3.0697198,-12.16936,-21.741789,16.549099,-5.54959,9.812528,10.309655,-0.5293517,-4.7363877,4.704308,-12.070371,-0.15835877,-5.3333488,-4.687731
36.653873,-68.93706,-5.769989,34.928024,4.1411834,-12.727661,-9.633924,8.814225,-13.859501,11.663364,-7.50501,14.393373,4.2363825,3.5676434,-15.998161,-3.1090417,0.8176998,-22.851948,-1.7939403,3.1077657,-7.479422,-0.5455563,10.091535,-18.58535,-1.3292269,0.50531167,-12.6339445,-6.123496,0.16603826,-7.1316533,-5.5909758,18.699091,-16.046755,-4.415223,0.440949,-15.198664,-1.5070136,-3.4284534,-13.993401,-26.254915,19.867922,-6.3773875,11.634472,12.818767,-0.3329263,-5.528656,5.5041018,-17.034397,-0.25493598,-6.067626,-7.8741474
32.049828,-58.81261,-7.5849156,29.579782,3.0175283,-11.170509,-8.179152,7.608886,-14.125681,9.6618,-6.492946,7.156633,4.01551,3.3237774,-20.912027,-2.8499117,0.79053557,-33.079285,-1.550996,2.7617593,-15.196525,-0.49005073,8.84877,-22.25537,-1.3057084,0.52094203,-20.664915,-5.782891,0.40226376,-11.2564,-4.903842,15.792993,-20.088638,-4.0776978,0.6162516,-24.145914,-1.748679,-2.8713489,-17.95295,-22.33812,16.972473,-5.6388116,9.906488,10.039009,-3.381964,-4.922319,4.9607396,-17.218384,-0.27092203,-5.340734,-7.8087425
29.44572,-52.774128,-9.086626,26.70355,4.4401164,-9.215092,-7.5820065,7.0002103,-12.3133135,8.438013,-5.9309497,0.46500126,3.937967,3.9537928,-24.207474,-2.716235,0.77124906,-40.901554,-1.3701279,2.5258918,-23.242376,-0.41360527,8.499566,-33.03628,-1.3159598,0.5673064,-49.36562,-6.7857,1.3059824,-28.771614,-4.507936,13.9065695,-33.28602,-4.1077323,1.0479338,-49.54166,-2.4684234,-2.0982978,-30.64072,-20.172672,15.403179,-5.264968,8.399374,6.486345,-22.187298,-5.1575756,5.5513783,-43.049892,-0.8695345,-4.6279993,-23.6481
29.876968,-55.2946,-5.989431,28.101131,4.246914,-9.863622,-7.9593515,7.3507733,-11.433755,9.54187,-6.2686477,10.6056595,3.7426279,3.3006399,-14.414911,-2.7912068,0.80585825,-19.40237,-1.6680324,2.7687771,-6.4772925,-0.4940696,8.544992,-18.943115,-1.2923714,0.5168956,-17.026863,-5.437498,0.35902995,-9.631112,-4.7311482,14.986607,-17.931719,-3.8879228,0.5576067,-19.562536,-1.5670815,-2.8456128,-15.254069,-21.131094,16.09397,-5.4308996,9.288307,9.002557,-7.918303,-4.85664,4.9861674,-22.580582,-0.39939073,-5.0754704,-10.942077
30.584833,-56.286087,-6.6574907,28.611977,4.6131525,-9.884834,-8.095258,7.45738,-11.462086,9.614693,-6.383196,9.704745,3.9042923,3.7581031,-18.370014,-2.811302,0.7952159,-27.024197,-1.5914178,2.7346559,-12.0315895,-0.46438366,8.866211,-24.286327,-1.3079021,0.53452915,-29.157665,-6.053766,0.6802929,-16.517233,-4.784602,15.078105,-21.904863,-4.0143943,0.65900517,-26.568993,-1.8122919,-2.7228236,-19.389536,-21.517363,16.382969,-5.50585,9.415667,8.759756,-8.807263,-4.938392,5.068342,-23.896984,-0.41634214,-5.1143217,-12.022041
33.414062,-59.720917,-11.102665,29.965237,5.2033463,-10.129431,-8.441818,7.658319,-13.1938715,9.1612215,-6.4062552,-2.3528407,4.543719,4.286784,-39.082264,-2.8393862,0.7306442,-71.057465,-1.1157888,2.4576364,-42.696674,-0.38622302,9.451401,-43.73745,-1.3500006,0.59116477,-66.28629,-7.901264,1.7465254,-38.26488,-4.840391,15.546059,-44.739853,-4.6000175,1.3749896,-70.32682,-3.1500335,-1.8408148,-42.329422,-22.611536,17.195457,-5.712199,9.162974,6.500417,-27.541656,-5.675232,6.201957,-51.391285,-1.0374255,-4.9208965,-29.17193
31.94942,-60.52013,-3.9464326,30.873045,5.1482325,-10.514463,-8.773791,7.9735107,-9.435445,10.665752,-6.8442774,16.465443,3.9783032,3.3638165,-16.973629,-2.9082742,0.8050622,-24.3855,-1.6771878,2.867533,-9.440203,-0.50769734,9.218691,-19.052639,-1.3083519,0.514406,-16.64472,-5.756599,0.32787204,-9.412884,-5.0614104,16.453716,-16.080612,-4.0749855,0.48953435,-16.465582,-1.5354267,-3.0624745,-14.777662,-23.138342,17.561346,-5.7880206,10.2358055,10.650236,-3.2430634,-5.090641,5.1451626,-19.600029,-0.3259679,-5.444136,-9.552937
33.67987,-63.228622,-5.266802,32.281246,6.4159365,-10.376518,-9.1744375,8.270719,-9.712188,10.9968405,-7.057139,15.116958,4.1561785,3.902338,-19.49128,-2.970834,0.8000226,-28.331524,-1.6648369,2.891276,-12.287666,-0.48169518,9.831728,-25.111128,-1.3274441,0.53289807,-29.277678,-6.5151997,0.70854616,-17.061255,-5.2053785,17.011692,-23.29576,-4.31043,0.6761409,-28.265625,-1.9060293,-2.8850625,-21.212736,-24.133406,18.305166,-5.9866505,10.330466,9.762545,-12.503413,-5.516283,5.72908,-32.320805,-0.5938175,-5.4659324,-17.102028
31.375088,-59.13497,-4.2989845,30.18715,5.132173,-10.232801,-8.581305,7.82385,-9.706634,10.448397,-6.7158284,15.7597065,3.9298933,3.3347173,-16.671452,-2.8792517,0.8048212,-23.276247,-1.6773036,2.8416886,-8.629385,-0.50315195,9.079409,-18.856977,-1.3036845,0.51363856,-15.758591,-5.621076,0.30581343,-8.892346,-4.9782887,16.086662,-16.245382,-4.0178995,0.49297956,-16.434511,-1.5261607,-3.019649,-14.665652,-22.625788,17.186708,-5.6969447,9.992841,10.134155,-4.395501,-5.022058,5.0909753,-20.050568,-0.32932436,-5.3540106,-9.634919
30.382935,-57.594772,-3.4531002,29.519796,5.6923237,-9.638,-8.447641,7.6945367,-8.844275,10.374853,-6.615893,17.37241,3.8717136,3.2081282,-16.301449,-2.848965,0.80657804,-21.019262,-1.6903759,2.8174262,-7.124755,-0.49632967,8.925283,-18.599825,-1.2982607,0.51261175,-14.674981,-5.476488,0.29583216,-8.276016,-4.8884354,15.727036,-15.964315,-3.9361644,0.4718888,-14.627352,-1.4733067,-2.989369,-13.812325,-22.077597,16.78386,-5.599416,9.73978,9.691692,-5.221277,-4.949067,5.0343447,-20.488726,-0.33762488,-5.2517657,-9.874051
30.971416,-58.164783,-4.539442,29.753384,4.8990655,-10.17558,-8.403627,7.7300134,-10.973821,10.294363,-6.619053,14.893967,3.869019,3.2941885,-14.856646,-2.8688238,0.81226647,-18.46013,-1.731541,2.8673306,-5.0706396,-0.49969923,8.979668,-18.068941,-1.298161,0.50856733,-12.796842,-5.423812,0.21335286,-6.8472137,-4.9415536,15.8522835,-15.487493,-3.9555106,0.43703246,-13.274785,-1.4178199,-3.0806718,-12.601797,-22.319487,16.973982,-5.653146,9.927552,9.984791,-3.5073926,-4.926202,4.951525,-17.209154,-0.250397,-5.361409,-7.587467
30.959324,-58.852375,-3.3812485,30.211693,7.2703066,-9.067439,-8.8366585,7.864722,-5.8102636,10.458362,-6.745776,15.937904,4.190686,3.5760326,-26.851301,-2.8569765,0.77295774,-44.11284,-1.4299862,2.6549363,-23.967192,-0.44890088,9.300994,-29.078794,-1.3239691,0.54968995,-38.87964,-6.681968,1.0225687,-22.830496,-4.9133496,15.878804,-26.64679,-4.2231126,0.8284962,-36.76343,-2.1763248,-2.4935594,-26.100344,-22.555838,17.139992,-5.688876,9.586439,8.650654,-14.4882,-5.3537655,5.6555505,-36.53322,-0.71694577,-5.085926,-20.513445
30.804457,-57.311996,-5.5498505,29.309397,6.446274,-9.154945,-8.443682,7.6257005,-8.653421,9.870701,-6.5267076,10.824124,4.1363664,3.7210798,-26.173096,-2.82375,0.7745293,-41.973354,-1.4336799,2.6376624,-22.654776,-0.43272182,9.161311,-30.532278,-1.3211505,0.5520603,-40.563774,-6.6607275,1.0611541,-23.670773,-4.8121243,15.315255,-28.88781,-4.198296,0.879442,-40.08869,-2.2690032,-2.398803,-27.361208,-21.948391,16.698566,-5.5836587,9.246158,7.784674,-17.593245,-5.3382874,5.648802,-39.011257,-0.7518022,-4.9726233,-21.205118
31.172848,-58.169243,-5.256317,29.639894,4.186973,-10.514993,-8.29967,7.691374,-12.439377,10.159759,-6.589878,13.329633,3.8552983,3.180078,-14.575413,-2.8679743,0.81307185,-17.640192,-1.7353995,2.8712487,-4.552863,-0.50849855,8.83961,-17.513035,-1.2965975,0.5061601,-11.054636,-5.3474464,0.16155094,-5.837635,-4.935542,15.874059,-14.930181,-3.939969,0.42114526,-11.9229,-1.3730304,-3.1137066,-11.776781,-22.278576,16.942205,-5.6466923,9.974663,10.309388,-1.7584481,-4.8565154,4.856786,-14.324126,-0.19746274,-5.3911114,-6.04919
31.987255,-58.60947,-7.7637677,29.534521,4.3623476,-10.400401,-8.297671,7.613061,-12.649191,9.593575,-6.4521127,5.9270086,4.235854,3.3533165,-29.71154,-2.8345752,0.7635698,-50.15348,-1.3611277,2.615213,-27.118294,-0.4551047,8.951719,-29.614344,-1.3175353,0.54269063,-34.173134,-6.3746037,0.82047695,-19.442854,-4.8480387,15.662055,-28.838072,-4.2322507,0.88173616,-39.81894,-2.2314792,-2.4794679,-26.597092,-22.257835,16.923212,-5.636475,9.548924,8.57131,-12.411633,-5.1641984,5.401376,-29.81067,-0.550202,-5.1539793,-15.830005
31.005016,-58.221832,-4.6368127,29.702559,4.29328,-10.483614,-8.377761,7.7188983,-11.4205,10.237754,-6.6030626,14.164687,3.83548,3.1006327,-14.149689,-2.8669546,0.8125801,-18.116802,-1.7299917,2.8682647,-4.9091234,-0.5176689,8.80336,-16.368109,-1.2949727,0.5044708,-9.8109865,-5.3029547,0.13642237,-5.27538,-4.9402227,15.952737,-14.211983,-3.9352055,0.41918725,-11.780922,-1.3522311,-3.117498,-11.580333,-22.31878,16.970467,-5.6493225,9.98363,10.463932,-1.825154,-4.878893,4.89971,-15.237205,-0.23280609,-5.3785777,-6.8012633
30.403141,-55.4496,-7.6728525,28.166346,6.081236,-8.899029,-8.14048,7.348275,-9.460565,9.112503,-6.2317076,4.2087636,4.295672,3.782383,-34.95901,-2.7602925,0.7426292,-61.331524,-1.1852646,2.433279,-36.39242,-0.39616513,8.922251,-38.15942,-1.3295772,0.5770642,-56.16601,-7.2210193,1.5049975,-32.69289,-4.6345243,14.674675,-37.960423,-4.3051224,1.1833963,-57.990517,-2.7850056,-1.937252,-36.328217,-21.1756,16.137487,-5.4469624,8.70406,6.399136,-23.95076,-5.372751,5.8397393,-47.03725,-0.9489243,-4.716695,-26.655636
30.821968,-53.787994,-12.536643,26.630207,1.4213779,-10.840309,-7.2217016,6.902014,-18.66774,8.00829,-5.792724,-5.724905,4.0119762,3.6748176,-26.498726,-2.724481,0.7654096,-45.129745,-1.3450015,2.538064,-24.226206,-0.43824884,8.262249,-30.492147,-1.3069284,0.54788595,-37.206367,-6.1769223,0.8500625,-20.526535,-4.540777,14.065438,-30.504747,-4.0722976,0.93627,-42.889748,-2.2649035,-2.3328617,-26.495247,-20.304266,15.496178,-5.289399,8.825006,7.436928,-11.767073,-4.7561293,4.9315577,-24.05852,-0.41996872,-4.9200344,-11.720904
32.21299,-61.19652,-3.6865926,31.303307,6.8650937,-9.752477,-9.0646515,8.084812,-6.771327,10.7269335,-6.9395256,15.767795,4.3334002,3.7170563,-29.38238,-2.904523,0.76776004,-49.338318,-1.3974131,2.6744933,-27.354933,-0.44770324,9.552041,-30.96808,-1.3345853,0.55449474,-42.555576,-6.971605,1.0822003,-24.57783,-5.049646,16.438408,-27.000372,-4.322843,0.82194245,-36.877945,-2.1974785,-2.5751543,-26.357618,-23.404598,17.761364,-5.8411884,10.0885105,9.5656185,-9.712198,-5.32978,5.5516586,-29.940853,-0.57390773,-5.303806,-17.094137
30.927286,-59.293385,-2.3702953,30.535614,7.7166443,-8.940798,-8.931958,7.943496,-5.3292265,10.765975,-6.8285265,19.096334,4.160225,3.424265,-25.20085,-2.871866,0.7813481,-39.01283,-1.5053797,2.7073975,-19.948202,-0.45663184,9.375291,-26.726515,-1.318814,0.5388695,-32.27215,-6.382556,0.8283586,-18.738934,-4.9528713,16.087275,-23.863602,-4.167967,0.7191471,-30.118408,-1.9859715,-2.6452627,-22.865164,-22.740107,17.270794,-5.719943,9.728632,8.958958,-12.398941,-5.310155,5.5651364,-33.15754,-0.62820786,-5.1649714,-18.230463
31.120876,-59.21551,-3.1597095,30.412169,5.9702487,-9.851815,-8.657702,7.887906,-9.24995,10.669717,-6.7757387,18.113853,3.9529371,3.2947516,-16.648829,-2.8918636,0.80980235,-20.746054,-1.7180083,2.8699741,-6.7325153,-0.49009222,9.20653,-19.414217,-1.303661,0.51149464,-14.816347,-5.5832973,0.28505537,-8.109756,-5.0024233,16.123573,-16.217459,-4.0060296,0.44729424,-13.83287,-1.4760704,-3.0657775,-13.560975,-22.732847,17.27247,-5.725953,10.036262,9.968228,-4.530221,-5.0490413,5.0952616,-19.8243,-0.30373234,-5.387097,-9.210894
31.048668,-58.79606,-3.7786236,30.073208,4.4837465,-10.525113,-8.525843,7.822017,-10.753272,10.423454,-6.6792746,15.237929,3.8270879,3.0396752,-13.043524,-2.887189,0.81536317,-16.573965,-1.7464415,2.892157,-4.296537,-0.5284268,8.803021,-15.528571,-1.2965274,0.5034357,-9.07692,-5.3349037,0.13167122,-5.109125,-4.995409,16.151417,-13.310789,-3.951529,0.39832926,-10.476277,-1.3077769,-3.1625333,-10.878079,-22.586456,17.170486,-5.7037983,10.1255455,10.847209,-1.082398,-4.9171276,4.94045,-15.087424,-0.24411887,-5.4259877,-7.078305
36.360348,-68.50043,-5.38622,34.872784,6.5473967,-11.376074,-9.71189,8.790525,-11.450134,11.851165,-7.5296173,17.914326,4.389636,4.225878,-21.002428,-3.0888839,0.8060322,-28.438643,-1.7398461,3.0342183,-10.983836,-0.47677302,10.62941,-26.279799,-1.3414099,0.52702874,-27.289555,-6.690734,0.5723954,-15.056777,-5.5229034,18.286066,-22.144192,-4.475189,0.5661462,-22.859703,-1.8177091,-3.183063,-19.185698,-26.036446,19.696613,-6.3303924,11.287048,11.030272,-6.7411103,-5.6327114,5.6814013,-24.172932,-0.35360378,-5.9175763,-11.532294
33.640762,-63.7018,-4.1039925,32.546432,6.115203,-10.649983,-9.163627,8.316517,-10.116847,11.27601,-7.160906,18.774492,4.200076,3.6016147,-20.640045,-2.9797127,0.8032043,-27.775915,-1.6973087,2.921502,-10.710054,-0.48395544,9.833163,-23.132555,-1.3220671,0.520593,-21.636269,-6.1310077,0.4381382,-11.63075,-5.2363386,17.299473,-18.771227,-4.218849,0.50065804,-17.37214,-1.6121047,-3.1288218,-15.934728,-24.317436,18.429987,-6.008633,10.725118,10.951802,-2.663248,-5.22573,5.255803,-17.927662,-0.2590372,-5.6692433,-8.553682
31.060148,-59.060593,-3.1465163,30.324232,6.2186775,-9.684292,-8.65066,7.862149,-8.64989,10.671338,-6.7855926,18.860561,3.9954545,3.36932,-18.558537,-2.8820686,0.8043667,-23.98114,-1.6811671,2.8355422,-8.873764,-0.47867256,9.257705,-21.056183,-1.3069172,0.51752484,-18.586721,-5.727989,0.38600644,-10.173851,-4.973483,16.08438,-17.215248,-4.014008,0.480344,-15.518224,-1.5407016,-3.006681,-14.73731,-22.646652,17.201984,-5.703065,9.988654,9.883525,-4.3772063,-5.023583,5.079163,-19.777182,-0.30398723,-5.3554196,-9.401067
32.110466,-61.316933,-2.9891672,31.42953,5.959321,-10.274526,-8.973537,8.113219,-8.565468,11.046818,-6.959241,19.510485,3.993548,3.3508,-16.218132,-2.934013,0.81009257,-21.37921,-1.7334216,2.9093757,-6.9882393,-0.5090574,9.38874,-18.483955,-1.3089806,0.511262,-14.773138,-5.704141,0.27818754,-8.132107,-5.121688,16.771444,-15.2365885,-4.074737,0.4399027,-13.190576,-1.4388233,-3.1482723,-13.234821,-23.487806,17.82121,-5.8561716,10.400249,10.835345,-2.6756456,-5.1086445,5.1636477,-18.338129,-0.2945491,-5.519892,-8.9402275
30.657831,-54.700935,-9.807529,27.533161,3.7753978,-9.907024,-7.6177864,7.1484523,-14.835359,8.848543,-6.118253,3.2313426,4.0809565,4.12764,-26.413666,-2.758006,0.7728807,-40.958748,-1.4268075,2.593492,-20.98249,-0.404456,8.860763,-32.612026,-1.3166287,0.55595434,-43.440186,-6.501088,1.0069895,-23.540627,-4.631516,14.345779,-28.73025,-4.0612135,0.8246489,-36.707844,-2.1478484,-2.4581604,-24.62194,-20.794033,15.852336,-5.3747025,9.131429,7.663531,-8.361729,-4.721277,4.813042,-19.588326,-0.2886715,-5.034817,-9.22855
30.738724,-57.50511,-4.9516945,29.409822,7.9232926,-8.385351,-8.579448,7.640804,-6.386653,9.938293,-6.569458,12.188216,4.438529,3.6998332,-37.964222,-2.804555,0.7415204,-63.698402,-1.1948577,2.4616146,-37.507217,-0.3851097,9.365097,-38.6288,-1.3350055,0.57413936,-54.450104,-7.2408533,1.45183,-31.606598,-4.757798,15.245622,-36.17498,-4.332217,1.0962539,-52.81994,-2.71776,-2.053232,-35.237736,-21.941507,16.682104,-5.5747643,9.046431,6.734463,-21.71839,-5.444024,5.858714,-45.36067,-0.87495065,-4.851896,-25.4553
33.464737,-63.37575,-4.096578,32.451317,5.9917183,-10.6611185,-9.121251,8.309941,-10.962399,11.296747,-7.1017537,18.581968,4.077236,3.5242708,-15.93044,-2.9884264,0.8165441,-18.418669,-1.8060002,2.9945278,-4.0888314,-0.5030247,9.754306,-19.403376,-1.3126816,0.50696844,-12.914815,-5.7225413,0.19563465,-6.705812,-5.2531223,17.246029,-16.453323,-4.155742,0.41439325,-12.384054,-1.4268894,-3.2594464,-12.775144,-24.248297,18.391207,-6.0091624,10.69112,10.777249,-3.8163962,-5.231499,5.2557783,-18.175758,-0.24569479,-5.6930647,-8.038127
32.152958,-60.412754,-5.223418,30.674711,6.7283797,-9.56588,-8.902312,7.9146867,-7.4058065,10.159438,-6.7060833,9.918284,4.393524,3.1530688,-34.459385,-2.867379,0.7489233,-60.957912,-1.243467,2.5605204,-35.517857,-0.4480633,9.276996,-32.59524,-1.3288844,0.55358124,-41.03936,-6.8503733,1.1036686,-24.638763,-4.9348826,16.196901,-33.791348,-4.4274287,1.0844134,-52.021046,-2.636517,-2.1974072,-33.97853,-22.970657,17.440203,-5.765684,9.402223,7.858807,-23.76521,-5.752042,6.2385,-51.4056,-1.0455853,-4.986438,-28.88024
30.41071,-55.292183,-7.978055,27.936157,3.3692744,-10.278904,-7.8096037,7.2903843,-13.996164,9.207238,-6.180636,5.977536,3.7861443,3.4294167,-15.805104,-2.7922325,0.8004864,-22.565596,-1.628756,2.7458107,-8.846786,-0.48870456,8.475932,-21.36316,-1.2973949,0.52410585,-21.847395,-5.6510143,0.4778337,-12.305118,-4.7214003,14.897798,-20.922354,-3.9448876,0.6397554,-24.564213,-1.6974376,-2.762436,-17.42707,-21.092577,16.07639,-5.4368286,9.260785,8.8016205,-8.922574,-4.8489127,4.995283,-22.578796,-0.40403885,-5.0813828,-11.1447735
30.886854,-57.062386,-6.448068,28.936934,4.2071166,-10.223973,-8.123811,7.515322,-12.313865,9.810932,-6.410589,11.247153,3.815121,3.4824257,-14.674279,-2.8311772,0.8081518,-18.942776,-1.7031883,2.8186789,-5.534948,-0.49184462,8.829329,-19.483665,-1.2978635,0.51611036,-17.255787,-5.512561,0.32284024,-9.276061,-4.8342113,15.413772,-17.691576,-3.9395037,0.5215964,-17.68539,-1.5229192,-2.9544497,-14.388633,-21.748205,16.546095,-5.5436363,9.623781,9.416646,-5.4674807,-4.8499813,4.924349,-18.24563,-0.28899765,-5.240701,-8.275419
31.312979,-55.537632,-10.755929,27.673279,1.950359,-10.951905,-7.431403,7.130981,-18.360497,8.861151,-6.0966325,3.15802,3.8000085,3.723187,-15.958722,-2.783637,0.80518764,-19.440832,-1.6730962,2.7733157,-5.652791,-0.4683707,8.584651,-22.414078,-1.2972876,0.52197313,-21.082708,-5.5132236,0.35656583,-10.495216,-4.6921625,14.737119,-19.564531,-3.883059,0.54745835,-18.926859,-1.5688894,-2.9094963,-14.5734415,-20.945719,15.946327,-5.3933578,9.4271965,9.080846,-1.7479951,-4.5232716,4.487904,-8.9025755,-0.063667335,-5.228375,-2.203478
32.199833,-60.269955,-5.2722173,30.688803,4.5472336,-10.742158,-8.619837,7.924968,-11.9799,10.574362,-6.754514,14.915501,3.8428407,3.4503682,-11.671696,-2.9174252,0.8205814,-12.733701,-1.8147933,2.9479632,-1.1403869,-0.5232839,9.134713,-16.560287,-1.3021935,0.50654924,-11.454578,-5.482861,0.1643192,-6.0993953,-5.067558,16.41146,-14.280883,-4.0016775,0.40035596,-10.663212,-1.3080246,-3.2208645,-10.955463,-23.023054,17.488256,-5.783697,10.279488,10.724866,-2.0018034,-4.95026,4.974178,-14.3600855,-0.20611514,-5.520675,-6.353544
34.44077,-63.895897,-6.9340906,32.344868,4.707924,-11.342951,-8.96399,8.2348995,-13.498603,10.874376,-7.015674,13.1335535,4.0881114,3.9232929,-15.940979,-2.9870281,0.81217396,-20.474874,-1.7689519,2.9776788,-5.836793,-0.50015897,9.771708,-21.726303,-1.3204297,0.5181306,-20.147661,-6.0725546,0.37378076,-10.916175,-5.2468214,17.15786,-19.234203,-4.2332635,0.52008754,-18.771433,-1.5997422,-3.1627126,-15.615525,-24.263636,18.397856,-6.0093217,10.666332,10.68359,-4.874069,-5.237379,5.2808604,-18.77402,-0.27175567,-5.6872845,-8.553836
35.367958,-65.15854,-7.716924,32.936825,4.029733,-11.950084,-8.984851,8.347503,-15.931055,11.025524,-7.1232615,12.659124,4.061832,3.703611,-13.563033,-3.0260394,0.8235312,-14.244565,-1.8617089,3.0655456,-1.1954337,-0.52379286,9.797103,-18.574286,-1.3165145,0.50452304,-11.302854,-5.752986,0.10949996,-5.806405,-5.344633,17.594254,-16.266384,-4.213872,0.4069795,-12.141632,-1.3975298,-3.3733802,-12.17741,-24.737335,18.749409,-6.103544,10.962788,11.305016,-2.2947624,-5.2225666,5.199871,-14.236578,-0.15889491,-5.8531017,-5.460043
33.190704,-61.924324,-5.6095357,31.579807,4.595282,-11.072129,-8.781176,8.113522,-13.405045,10.84142,-6.927509,14.967335,3.9532478,3.3566456,-13.379836,-2.963325,0.8217311,-14.145398,-1.8341758,2.995275,-1.4731613,-0.5234191,9.359589,-17.0617,-1.3057773,0.50245756,-9.079236,-5.4869103,0.087415405,-4.671133,-5.180992,16.923134,-14.715391,-4.0697794,0.3771102,-9.758609,-1.3041644,-3.305387,-10.805651,-23.696898,17.994436,-5.918591,10.568821,10.956996,-1.8108855,-5.055769,5.0509353,-13.890393,-0.1707566,-5.6665893,-5.7133327
33.793392,-63.397697,-5.2053375,32.317272,4.7218885,-11.309944,-8.994385,8.268417,-12.826544,11.066738,-7.0681057,15.669381,4.060829,3.3570008,-15.732965,-2.9888785,0.8165064,-19.290194,-1.7934964,2.9968219,-4.7155466,-0.5198781,9.55023,-18.227652,-1.3112311,0.5042209,-10.875087,-5.6546307,0.13160802,-5.6000633,-5.255764,17.343477,-15.457633,-4.1512885,0.40440315,-11.694643,-1.382122,-3.3020205,-12.038309,-24.246943,18.394573,-6.011551,10.802411,11.406286,-0.9783036,-5.1510525,5.139746,-14.386327,-0.18483347,-5.743996,-6.1469064
33.970146,-62.991783,-6.5528336,31.923605,3.8798618,-11.615032,-8.762912,8.146846,-14.991554,10.744391,-6.9764533,12.70527,4.072114,3.206798,-17.134748,-2.9720278,0.8129507,-21.206629,-1.7636689,2.974731,-5.8712525,-0.5201618,9.393799,-18.261484,-1.3073077,0.50059986,-8.046032,-5.495613,0.04570271,-4.0579214,-5.211309,17.150257,-15.983769,-4.1368284,0.41886526,-12.489358,-1.4214065,-3.2744284,-12.555494,-24.005604,18.211847,-5.9647574,10.672101,11.128102,-1.6346877,-5.130086,5.1020913,-14.562724,-0.17206314,-5.7123637,-5.65317
34.63741,-63.25884,-8.59687,31.842983,3.404267,-11.874953,-8.645491,8.079959,-16.209995,10.450428,-6.932108,9.449852,4.1207266,3.7545385,-18.108746,-2.9675066,0.8096483,-23.919264,-1.7295144,2.9602437,-7.7971854,-0.49346927,9.6452875,-21.75863,-1.3165469,0.51239175,-16.752382,-5.867724,0.24176878,-8.667781,-5.1996946,16.935417,-18.851603,-4.211594,0.5039598,-18.596443,-1.6264924,-3.1709433,-15.688364,-23.987581,18.192923,-5.9546056,10.608558,10.65863,-3.0558202,-5.171898,5.1302767,-16.237844,-0.18672562,-5.6896205,-6.16588
29.845089,-55.991634,-4.37144,28.675482,4.485608,-9.950529,-8.132797,7.5144043,-11.066071,9.9943695,-6.4402304,14.469958,3.7576141,3.0900543,-13.487975,-2.82424,0.8138372,-15.745202,-1.7373705,2.8328896,-3.4748566,-0.50507396,8.600149,-16.729914,-1.290292,0.5068026,-11.167748,-5.2176642,0.17427795,-5.8239017,-4.8191924,15.387303,-14.114148,-3.8391957,0.40351856,-10.510215,-1.3049536,-3.0720878,-10.783514,-21.540369,16.405172,-5.5142784,9.694258,10.004885,-1.495112,-4.723344,4.7381687,-13.482717,-0.19607146,-5.264809,-5.89611
31.64663,-59.245224,-4.859422,30.329327,4.8263927,-10.430779,-8.502697,7.862912,-12.403623,10.519569,-6.735166,15.321278,3.8886285,3.2582126,-13.8919325,-2.905488,0.81878555,-14.514445,-1.7981646,2.9275794,-2.1301074,-0.5062484,9.078265,-17.834127,-1.3003592,0.50574225,-11.133959,-5.4157205,0.15554689,-5.7131085,-5.0252004,16.222858,-14.937088,-3.9704084,0.38250014,-9.78636,-1.3112116,-3.2023025,-10.805209,-22.75256,17.303158,-5.7477636,10.190188,10.426126,-1.7038773,-4.911468,4.905016,-13.454032,-0.16967392,-5.4975696,-5.6047754
32.91558,-61.3206,-5.749009,31.234436,4.936231,-10.743484,-8.635249,8.010391,-13.742356,10.689502,-6.877525,14.793942,4.0293493,3.4375048,-16.443056,-2.9414878,0.8154801,-17.626022,-1.7842618,2.9502177,-3.7828922,-0.49064183,9.432009,-20.399467,-1.3079103,0.50791055,-13.101675,-5.5989633,0.19090465,-6.627325,-5.11526,16.612747,-17.09651,-4.074598,0.418146,-12.177614,-1.4360158,-3.20044,-12.575725,-23.409073,17.774187,-5.8606014,10.388566,10.352163,-2.8828087,-5.050169,5.028604,-15.054998,-0.16944139,-5.5964684,-5.905271
31.531897,-58.545258,-5.9011908,29.821592,6.4108963,-9.370884,-8.469597,7.7078476,-10.340762,10.068619,-6.6165357,11.906071,4.2924333,3.6723483,-30.420403,-2.8458223,0.7675099,-46.916683,-1.4067391,2.6302338,-25.048014,-0.41950965,9.320326,-32.64423,-1.3246564,0.55130696,-40.079258,-6.635898,0.9929888,-22.663898,-4.8640013,15.593783,-29.395447,-4.216679,0.83785695,-37.1704,-2.2203984,-2.4877586,-26.38218,-22.314163,16.962887,-5.652463,9.546566,8.074022,-12.903624,-5.1731024,5.387365,-30.022863,-0.51520747,-5.153136,-15.845081
37.31638,-63.254276,-18.94745,30.597391,-0.58440685,-13.570894,-7.6179647,7.5321975,-28.762728,8.547994,-6.3742976,-11.571994,4.438556,4.746807,-30.351843,-2.9104896,0.7714675,-46.211437,-1.4491591,2.7597282,-22.568558,-0.40540725,9.662459,-37.442173,-1.3397187,0.5525647,-43.338768,-6.8555183,0.8280404,-21.935476,-5.0143204,15.999848,-33.74622,-4.4267745,0.897208,-41.794895,-2.3577318,-2.7051296,-26.784576,-23.346075,17.696922,-5.825233,10.300754,9.010137,-3.514228,-4.87024,4.7759256,-8.5274515,0.027377605,-5.672414,-0.7830778
47.855003,-75.46214,-37.16188,34.661995,-4.8203483,-17.595337,-7.943284,7.963026,-45.16527,6.9785056,-6.288022,-48.94203,5.778037,8.182343,-65.902794,-3.0463924,0.65269285,-125.08902,-0.64628536,2.3717966,-75.259285,-0.21964015,11.598241,-82.13432,-1.4534249,0.69232315,-136.3023,-11.42443,3.1524563,-71.95296,-5.354589,17.438509,-78.55234,-5.706461,2.2101152,-121.73647,-4.7245035,-1.4485111,-65.68074,-26.846045,20.257172,-6.447034,11.319231,7.2313027,-13.663975,-5.3033905,5.4894705,-12.674776,-0.080153,-6.133395,-5.6067376
47.953167,-75.31639,-37.828415,34.450233,-5.588152,-17.92696,-7.7855415,7.8886085,-47.015167,6.7709002,-6.20463,-50.888702,5.790015,7.927599,-67.16787,-3.0387988,0.6501464,-126.805016,-0.6284625,2.3600993,-76.10988,-0.2234983,11.439563,-81.607285,-1.4492027,0.6870186,-132.1422,-11.207517,3.0248072,-69.30369,-5.3339643,17.398714,-78.13093,-5.6806583,2.1920094,-120.130684,-4.678015,-1.4845707,-64.677376,-26.734518,20.172613,-6.426209,11.345593,7.3960233,-11.534205,-5.1990023,5.3445334,-8.772408,0.015046045,-6.1736565,-3.0478382
46.86109,-73.65715,-36.76487,33.71936,-5.540764,-17.598484,-7.637292,7.7587876,-46.13058,6.6956964,-6.1120048,-49.214146,5.6845655,7.554335,-65.57675,-3.00812,0.65517306,-123.197296,-0.6568327,2.3557484,-73.61311,-0.23695137,11.150874,-78.35355,-1.437678,0.6761097,-124.49891,-10.780097,2.8320854,-65.11239,-5.2558503,17.094437,-75.22771,-5.563465,2.1142585,-115.14798,-4.522994,-1.5350195,-62.145485,-26.17715,19.765324,-6.3259473,11.144862,7.3383346,-10.937075,-5.11331,5.246428,-8.254443,0.028257117,-6.0925765,-2.5343633
47.621765,-75.1174,-36.913174,34.460785,-5.128375,-17.67976,-7.8683214,7.921442,-45.67657,6.908915,-6.237518,-49.15457,5.787428,7.7469053,-67.508606,-3.0374365,0.6501383,-127.52336,-0.62593275,2.3573146,-76.50353,-0.22974074,11.409131,-80.63597,-1.4462035,0.68322134,-129.62842,-11.100388,2.9727805,-68.119194,-5.3350883,17.428402,-77.58111,-5.6711836,2.18209,-119.700165,-4.666174,-1.4814674,-64.678276,-26.717295,20.165354,-6.426787,11.296608,7.312927,-12.850984,-5.260827,5.4332027,-11.5077,-0.041030757,-6.1420746,-4.62882
51.041676,-79.60102,-41.428493,36.208813,-6.595388,-19.204576,-7.9955435,8.167649,-51.612545,6.829841,-6.3947453,-56.63941,6.0125303,8.505859,-70.05909,-3.1204534,0.6445277,-132.24646,-0.6073074,2.416845,-79.347725,-0.21048638,12.019474,-86.27394,-1.468251,0.69697297,-139.43964,-11.746174,3.1687014,-73.05995,-5.539918,18.21316,-83.02163,-5.9244423,2.3069134,-127.83143,-4.9346557,-1.4830883,-68.58033,-28.121592,21.1837,-6.676457,11.844555,7.565805,-12.916766,-5.4197617,5.5523844,-9.342411,0.028975293,-6.420146,-2.8071885
43.245937,-67.60456,-34.356583,30.938368,-5.590699,-16.475416,-6.997876,7.221346,-44.01072,6.191194,-5.7179017,-45.74906,5.294746,6.8705845,-58.52923,-2.8928723,0.6730332,-108.25151,-0.7589346,2.3301404,-64.0034,-0.26148123,10.253194,-70.13262,-1.4067749,0.6536878,-108.53402,-9.7353115,2.4367478,-56.336803,-4.949403,15.762074,-67.240204,-5.1772346,1.9007204,-101.26698,-4.080471,-1.6290318,-54.761242,-24.06959,18.215755,-5.9404635,10.38191,6.90685,-8.606327,-4.745817,4.8289776,-4.7803,0.089630365,-5.7771616,-0.113404855
45.210033,-70.722176,-35.93163,32.373917,-5.3282156,-16.91921,-7.335348,7.4992046,-45.192677,6.4054537,-5.9146857,-48.39475,5.549653,7.2881155,-64.02171,-2.9519453,0.65903324,-119.308495,-0.6686119,2.317115,-71.348045,-0.23903902,10.759959,-76.33823,-1.4264281,0.67080605,-120.30094,-10.436267,2.7446904,-63.000053,-5.102111,16.382917,-73.513596,-5.419036,2.0702226,-112.20219,-4.4321837,-1.4927319,-60.69467,-25.152763,19.015432,-6.1440754,10.696327,6.716554,-12.094202,-5.0021296,5.146038,-9.587233,-0.0025427341,-5.9030056,-3.1233563
45.231323,-70.36156,-36.591187,32.123005,-5.8770475,-17.121674,-7.1725693,7.4256134,-46.613255,6.276134,-5.8750105,-49.195892,5.4734774,7.2888846,-61.374832,-2.948897,0.6676595,-113.2111,-0.7308294,2.3575811,-67.181404,-0.24549119,10.6938715,-74.40595,-1.4217803,0.6633015,-115.658806,-10.199868,2.6009228,-60.297882,-5.086423,16.261734,-71.64175,-5.3613997,2.0033872,-108.27594,-4.3195486,-1.5786905,-58.58578,-24.987206,18.88959,-6.1125083,10.656503,6.737321,-11.283299,-4.9572964,5.054914,-7.833324,0.046149477,-5.909585,-1.5364811
43.69237,-68.08678,-35.093388,31.16121,-5.462644,-16.496143,-7.060129,7.2653832,-44.386852,6.120789,-5.7303247,-47.96422,5.406603,7.0352907,-61.861103,-2.90145,0.66267306,-115.450195,-0.68092406,2.2858586,-69.16756,-0.2465443,10.361417,-73.8158,-1.4156705,0.6654389,-116.208405,-10.114811,2.6532445,-60.85409,-4.9680157,15.792467,-71.15736,-5.2796674,2.0170515,-108.6671,-4.305765,-1.484173,-58.63586,-24.25511,18.358803,-5.9820857,10.366303,6.5145807,-11.333826,-4.8514996,4.988208,-8.457501,0.006940156,-5.759261,-2.5414834
45.396114,-70.66736,-36.710876,32.29487,-5.753349,-17.132362,-7.2925186,7.4783716,-45.97345,6.225061,-5.8691487,-51.06753,5.5813727,7.276652,-65.310524,-2.95053,0.65354884,-123.21648,-0.6208078,2.29113,-74.31278,-0.24061987,10.696004,-77.22818,-1.428186,0.6734436,-122.02838,-10.523097,2.794148,-64.25404,-5.0985913,16.327349,-75.30868,-5.4651885,2.1358862,-116.61315,-4.550723,-1.41177,-62.77762,-25.14749,19.0185,-6.148554,10.628095,6.4816856,-14.207392,-5.074732,5.254269,-12.653555,-0.07157224,-5.87114,-4.9328537
47.688026,-74.22097,-38.72302,33.791965,-6.540839,-18.178417,-7.484626,7.727509,-49.387558,6.424154,-6.0585914,-53.49338,5.7424345,7.474605,-67.2498,-3.0187442,0.6524813,-125.67228,-0.63554496,2.3585095,-75.06105,-0.23779644,11.118573,-79.07813,-1.4379511,0.67284364,-122.24041,-10.697458,2.7499614,-63.771515,-5.2743673,17.13801,-76.78233,-5.606997,2.145368,-117.234726,-4.5965548,-1.5270612,-63.108696,-26.30698,19.862196,-6.355388,11.163748,7.1348104,-11.906155,-5.1517024,5.27023,-8.417101,0.046511307,-6.1377425,-1.9612067
46.518707,-72.50684,-37.519512,33.110313,-6.008894,-17.610619,-7.4362106,7.626417,-47.23779,6.3645177,-5.9805045,-52.066994,5.6730957,7.3920407,-66.57399,-2.9862406,0.6515981,-125.45741,-0.6175625,2.3189297,-75.463745,-0.23850933,10.925099,-78.466896,-1.434177,0.6748231,-123.33063,-10.67496,2.8100522,-64.76826,-5.192788,16.762352,-76.44403,-5.55095,2.1561823,-117.96593,-4.6018085,-1.448013,-63.479355,-25.774658,19.4777,-6.2615314,10.899375,6.7972484,-13.546828,-5.1419477,5.306066,-11.519793,-0.03939739,-5.996991,-4.1561246
47.05495,-73.17401,-38.38252,33.344734,-6.108284,-17.7582,-7.448945,7.64498,-47.987587,6.340198,-5.987393,-53.036346,5.709687,7.758455,-66.88219,-2.99403,0.64972943,-125.93253,-0.6153286,2.3192415,-75.71962,-0.22289704,11.106167,-80.83773,-1.4412451,0.6838342,-129.5656,-10.95733,2.955418,-67.84226,-5.210151,16.819447,-77.93028,-5.5903378,2.1872225,-119.73708,-4.652914,-1.4333498,-64.21297,-25.948084,19.597807,-6.2861805,11.013355,6.8743334,-12.139723,-5.0819035,5.2249446,-8.394042,0.0260593,-6.050693,-2.5129542
45.66314,-71.08185,-36.97062,32.508636,-5.539954,-17.108948,-7.359891,7.519787,-45.6481,6.3027167,-5.9174895,-50.71549,5.574464,7.634603,-63.94177,-2.9596329,0.65614617,-120.88207,-0.64616257,2.3100567,-72.89699,-0.23172733,10.874465,-78.33155,-1.4337755,0.68001014,-126.945305,-10.760341,2.918381,-66.952965,-5.1186123,16.376629,-75.98471,-5.491927,2.1510594,-117.74166,-4.5820312,-1.4019138,-63.28278,-25.288952,19.119383,-6.1702747,10.671495,6.4699435,-14.548128,-5.102398,5.286365,-13.0025625,-0.08936718,-5.878371,-5.29494
45.185272,-70.66997,-35.90524,32.430386,-5.101259,-16.835419,-7.423524,7.533282,-44.157406,6.413088,-5.9297514,-49.019188,5.5428514,7.4292164,-63.356705,-2.9557936,0.65784013,-120.26776,-0.65069014,2.3102505,-72.54736,-0.24313018,10.790766,-76.52591,-1.429697,0.6748818,-123.18195,-10.593658,2.8422685,-65.17954,-5.1114235,16.369091,-74.87881,-5.46975,2.1364722,-116.83441,-4.5536914,-1.3998713,-62.940228,-25.204807,19.061058,-6.1576324,10.579805,6.3728895,-16.176758,-5.174828,5.3953285,-16.502222,-0.16948333,-5.823897,-7.28649
41.144787,-63.7232,-33.54191,29.223328,-5.111739,-15.514037,-6.678215,6.904761,-41.971592,5.777025,-5.4561768,-45.877945,5.157346,6.7468615,-57.53088,-2.818779,0.6711406,-107.50589,-0.7238299,2.2457533,-64.373985,-0.25669855,9.8232,-69.46794,-1.3980271,0.6563027,-109.68496,-9.586196,2.5078068,-57.542065,-4.747587,14.805639,-67.616005,-5.056275,1.9384425,-103.75669,-4.126452,-1.4477576,-55.888447,-22.781637,17.28221,-5.7148485,9.723457,5.7564073,-13.009728,-4.7004013,4.865546,-10.897482,-0.061374597,-5.47278,-3.8433385
42.498844,-66.04907,-34.393143,30.239756,-5.469103,-16.127401,-6.8824186,7.0960674,-43.390785,5.924179,-5.580561,-47.58765,5.295624,6.78227,-60.359604,-2.8620238,0.6648082,-113.26666,-0.6851586,2.2595615,-67.96133,-0.25719124,10.0423,-71.325645,-1.4058588,0.65882874,-111.472664,-9.793465,2.5394764,-58.416832,-4.8670406,15.342301,-69.572136,-5.181274,1.9890367,-106.955765,-4.2315793,-1.4612207,-57.55726,-23.573538,17.863785,-5.86008,10.058406,6.151828,-12.521463,-4.7977867,4.9583745,-10.289161,-0.039312206,-5.6239185,-3.503563
41.531258,-65.17244,-32.26306,30.054882,-4.5192957,-15.523671,-6.9661627,7.11461,-40.814236,6.1894827,-5.651005,-43.171036,5.2395496,6.578651,-59.135628,-2.8524706,0.67008567,-109.89476,-0.7195374,2.2679458,-65.84094,-0.2606942,9.979314,-69.6208,-1.4009452,0.6546353,-108.788605,-9.660929,2.4979982,-57.164207,-4.8464966,15.25793,-67.10211,-5.10732,1.9129643,-102.384384,-4.110695,-1.5072939,-55.703426,-23.364319,17.713863,-5.825912,10.0021105,6.2778254,-11.809169,-4.7820663,4.9351716,-10.5292225,-0.051889293,-5.577272,-3.8993297
45.071453,-70.0375,-36.554127,31.977121,-5.927112,-17.089119,-7.136737,7.3981743,-46.702797,6.2109914,-5.8394094,-49.727013,5.4913254,7.1471057,-62.630047,-2.941505,0.6641569,-115.712654,-0.7024322,2.3351653,-68.861084,-0.24621168,10.609562,-74.540405,-1.4201493,0.6623681,-114.783745,-10.14322,2.582443,-59.84142,-5.069068,16.196844,-72.08646,-5.360204,2.0179436,-109.16664,-4.344165,-1.5497018,-59.04767,-24.891241,18.823523,-6.098137,10.606622,6.6138687,-11.693467,-4.9532003,5.060874,-8.246968,0.038983822,-5.890581,-1.7739769
47.959972,-74.80961,-38.568535,34.148495,-5.9363856,-17.982626,-7.603554,7.8096104,-49.008377,6.5568824,-6.1382456,-53.02165,5.844342,7.6523867,-70.02752,-3.0304022,0.64596,-130.05557,-0.5946816,2.3340917,-78.16459,-0.21718876,11.300202,-82.61442,-1.446321,0.68370354,-129.56155,-11.061572,2.9548416,-67.80278,-5.3040805,17.211672,-79.2373,-5.670758,2.1955838,-120.46028,-4.717715,-1.4572572,-65.16344,-26.5402,20.035591,-6.4017935,11.254228,7.0127115,-12.01747,-5.174565,5.2977614,-8.107255,0.051745266,-6.166062,-2.1705575
36.199768,-64.764824,-12.063961,32.342766,4.8370852,-11.304497,-8.8418455,8.117512,-16.566172,9.819294,-6.827612,-1.5149838,4.6185627,4.683412,-34.915577,-2.9618163,0.7531465,-59.67811,-1.3001962,2.672279,-34.54949,-0.39283496,10.152582,-42.928005,-1.3615446,0.5822315,-62.08159,-7.9968414,1.560437,-35.430847,-5.154974,16.678635,-42.42802,-4.7239428,1.2290012,-62.545353,-2.9697514,-2.2021756,-38.70929,-24.37206,18.480518,-6.035785,10.00482,7.683835,-23.960182,-5.848036,6.230041,-46.020885,-0.8679069,-5.3350554,-25.022722
33.206436,-62.464325,-5.0688505,31.678375,2.5369122,-12.269324,-8.862345,8.179504,-13.478701,10.698111,-6.9569187,12.278063,3.799451,3.0058312,-8.298721,-2.9804935,0.82690245,-11.209307,-1.8212643,3.0205424,-1.5609927,-0.58848906,8.8055725,-12.030989,-1.3058659,0.49939498,-6.801879,-5.5340595,0.05440674,-4.367936,-5.247875,17.270233,-10.183366,-4.0683713,0.33985052,-7.0659223,-1.1470107,-3.4096527,-8.3527565,-23.93629,18.17402,-5.964534,10.931829,13.128646,5.0433955,-4.9767256,4.9486876,-8.344593,-0.17667525,-5.7488303,-4.6185145
32.62583,-61.56543,-4.5760045,31.29185,2.6718616,-12.033138,-8.808493,8.112328,-12.708596,10.6482525,-6.9016156,12.974073,3.7706263,2.9391975,-8.319253,-2.961811,0.8261401,-11.350627,-1.8125721,2.9983373,-1.6987014,-0.58738184,8.691994,-11.818636,-1.3034787,0.49978977,-7.000162,-5.4872055,0.06562398,-4.408205,-5.199183,17.08841,-9.782679,-4.028051,0.3329809,-6.4404335,-1.1214569,-3.388662,-7.9818034,-23.641237,17.95927,-5.9105635,10.836722,13.09558,5.6742587,-4.9088783,4.883386,-7.456909,-0.16742498,-5.7000127,-4.3352723
31.72308,-59.932926,-4.3135095,30.481365,2.6082914,-11.738607,-8.629965,7.945432,-12.102746,10.406887,-6.752352,12.634812,3.694497,2.8727882,-7.6428323,-2.9243696,0.8251077,-10.782989,-1.7969558,2.961293,-1.5989428,-0.58848333,8.462465,-10.954009,-1.2977903,0.49908835,-5.904029,-5.347229,0.04975164,-3.950572,-5.1040974,16.636349,-9.310746,-3.9602056,0.3372466,-6.4931645,-1.1081386,-3.3343008,-7.846295,-23.03947,17.515614,-5.79831,10.563987,12.712313,4.8116827,-4.838867,4.828965,-8.544942,-0.19100422,-5.582092,-4.885634
36.89512,-69.12098,-6.404687,34.880074,3.28958,-13.172272,-9.566939,8.801588,-15.319445,11.589217,-7.4715247,13.106442,4.1060543,3.514572,-11.218283,-3.1192155,0.8270274,-14.56156,-1.8666905,3.1563005,-2.618851,-0.5777119,9.871427,-15.394268,-1.3256544,0.49993646,-8.301276,-5.968617,0.05987593,-5.0945654,-5.6129913,18.77422,-13.541483,-4.3684435,0.38439906,-10.958985,-1.336503,-3.539781,-11.300907,-26.259674,19.86903,-6.3834686,11.716672,13.380582,1.3511053,-5.445527,5.4158273,-13.967949,-0.21300706,-6.115095,-6.536288
28.954496,-54.589596,-3.9752746,27.82328,2.7501237,-10.575946,-7.9626465,7.3626246,-10.826739,9.57691,-6.2757163,11.553131,3.5620978,2.6934252,-9.269931,-2.7937372,0.8157344,-13.468872,-1.7059244,2.807238,-3.635108,-0.55871004,7.8988175,-11.543723,-1.2819923,0.5010628,-6.1658535,-5.001236,0.07723144,-3.9635565,-4.760681,15.135705,-10.053787,-3.7590709,0.38073653,-8.521944,-1.171885,-3.0921094,-8.830756,-21.037115,16.03401,-5.419668,9.634901,11.091871,2.1366043,-4.589763,4.6083636,-11.049926,-0.22321388,-5.19286,-5.668615
33.623997,-62.05594,-7.120709,31.33633,2.7708988,-12.013566,-8.612604,8.029943,-15.265039,10.406715,-6.861189,10.017073,3.9541326,3.245573,-14.111559,-2.9527936,0.8151398,-18.974546,-1.7516909,2.963092,-5.46191,-0.54036814,9.097492,-16.5572,-1.3061024,0.50263315,-9.277081,-5.539523,0.084970966,-5.150967,-5.1709776,16.892136,-14.522526,-4.10688,0.4252161,-13.005089,-1.3952235,-3.259647,-12.177647,-23.659618,17.96035,-5.9023123,10.61726,11.584397,0.18236089,-5.0426617,5.008044,-13.136359,-0.17878231,-5.665616,-5.420298
34.21103,-63.39021,-6.8556504,32.03129,3.147696,-12.082821,-8.796033,8.170772,-14.976628,10.672439,-6.9894543,11.45805,4.0316725,3.3313007,-15.261449,-2.9794457,0.81470937,-20.482737,-1.7576153,2.9830904,-5.9998126,-0.53262424,9.336398,-17.879694,-1.311795,0.50566477,-11.812193,-5.709807,0.1448691,-6.225025,-5.2368984,17.300194,-15.129745,-4.159862,0.4275331,-13.02569,-1.40672,-3.2920623,-12.295416,-24.147156,18.315344,-5.9871054,10.850868,11.976566,1.5928446,-5.072085,5.0268636,-11.386418,-0.14594182,-5.758551,-4.685405
34.585167,-62.863235,-9.62283,31.568779,4.153179,-11.34686,-8.732449,8.014367,-14.812448,10.048141,-6.737492,4.189459,4.24802,4.0041766,-24.064785,-2.9375515,0.7803237,-40.0679,-1.5114532,2.7853038,-20.15398,-0.47062525,9.572285,-29.511705,-1.3311464,0.5445052,-36.572315,-6.762294,0.8769687,-20.859215,-5.108248,16.711376,-29.794682,-4.413428,0.89324915,-40.964123,-2.236672,-2.6359258,-26.55434,-23.788717,18.052969,-5.922542,10.107984,9.229028,-14.955975,-5.473962,5.7439833,-33.466846,-0.6292734,-5.3996024,-17.801346
31.453283,-58.20549,-6.1283913,29.581396,3.0118575,-11.157565,-8.2411585,7.6881733,-13.74296,9.963293,-6.5760956,10.212993,3.8135529,3.0379128,-13.3484125,-2.8751984,0.81406486,-17.956646,-1.7241684,2.883912,-5.231438,-0.53342116,8.646425,-15.403849,-1.2947284,0.5019219,-8.131669,-5.2728057,0.07863672,-4.686128,-4.9648695,15.944893,-13.683308,-3.9519882,0.41719964,-12.361511,-1.3510487,-3.1498919,-11.599779,-22.34383,17.001863,-5.666828,10.05619,10.741924,-0.98388755,-4.87646,4.864981,-14.242839,-0.2115346,-5.421712,-6.1155314
34.05857,-62.43538,-7.881021,31.538631,3.012122,-11.949736,-8.589262,8.057978,-16.5517,10.439321,-6.899477,9.696988,3.9634264,3.3767726,-13.3585615,-2.9690037,0.8207706,-15.577827,-1.8031178,2.998444,-2.8997397,-0.5280463,9.289946,-17.398352,-1.3087404,0.5038232,-10.410963,-5.594964,0.09955591,-5.634712,-5.1947384,16.971579,-15.37016,-4.116294,0.41236693,-12.515645,-1.3878536,-3.2921364,-11.927947,-23.786486,18.058775,-5.9352245,10.633577,11.250536,-0.9664984,-5.078871,5.0423737,-13.084919,-0.16984561,-5.700537,-5.15224
32.596107,-60.0896,-6.7534113,30.493896,3.3237276,-11.337266,-8.383181,7.858167,-15.384433,10.277518,-6.7244205,11.180447,3.859643,3.1121264,-12.477748,-2.9208398,0.8211214,-13.304025,-1.8064852,2.9561038,-1.4352069,-0.5328621,8.935307,-15.594472,-1.2981445,0.49931186,-6.3532743,-5.279523,0.019235127,-3.4157624,-5.0664253,16.461573,-13.847919,-3.9880905,0.37502173,-9.367123,-1.272757,-3.2696042,-10.18409,-22.97644,17.464672,-5.7880754,10.312673,10.893368,-0.9259332,-4.9242334,4.901819,-12.2871895,-0.15369126,-5.5681877,-4.773836
31.48299,-58.370804,-5.811935,29.747404,3.5976963,-10.873332,-8.259227,7.725039,-14.189333,10.180319,-6.616567,12.549285,3.7882624,2.9839282,-11.810875,-2.8866353,0.8214914,-11.848898,-1.807004,2.9243078,-0.6138902,-0.53095335,8.7182665,-14.921905,-1.2929729,0.49947,-6.098108,-5.1659727,0.026303105,-3.1711369,-4.9736814,16.115534,-12.93835,-3.902038,0.35198298,-7.4386744,-1.199396,-3.2460246,-9.033648,-22.400143,17.045193,-5.6850615,10.119913,10.792725,0.055444203,-4.7954473,4.7778053,-10.638461,-0.13608831,-5.4780273,-4.2155776
32.224014,-60.057278,-5.456943,30.678675,4.460833,-10.778807,-8.569639,7.9337807,-13.023229,10.588759,-6.7779303,14.720635,3.8388114,3.3163974,-11.248463,-2.9261003,0.8242374,-10.602929,-1.8459202,2.970356,0.44509405,-0.52476543,9.111522,-16.014277,-1.3003843,0.503057,-9.293251,-5.3885717,0.10126006,-4.8335843,-5.079274,16.486462,-13.690624,-3.979103,0.3587209,-8.302008,-1.2336361,-3.2799892,-9.701661,-23.032244,17.508959,-5.7998037,10.333686,10.791294,-1.1762516,-4.920158,4.921521,-12.399007,-0.16146204,-5.5629044,-5.195847
32.5008,-60.2621,-6.0416145,30.698956,3.7530353,-11.188768,-8.501316,7.9253345,-14.289163,10.437803,-6.7960606,12.588511,3.9243894,3.1420882,-14.346772,-2.9264061,0.8176626,-16.671833,-1.781619,2.9464452,-3.526141,-0.52169317,9.052681,-16.96011,-1.3012007,0.50196,-8.835019,-5.4008274,0.08057075,-4.6206555,-5.0844383,16.557734,-14.563463,-4.018376,0.38618442,-10.45579,-1.3208674,-3.2483878,-10.988384,-23.11719,17.575085,-5.815954,10.387995,10.97515,-0.50032395,-4.9552345,4.9244165,-12.524825,-0.15619938,-5.584658,-5.0389886
31.80519,-57.381866,-8.85116,28.92801,2.983146,-10.899261,-7.8736324,7.4705205,-16.585337,9.58241,-6.423727,7.892149,3.806498,3.5321124,-13.39944,-2.8473377,0.8173983,-13.84086,-1.7724321,2.8795364,-1.7571834,-0.49026155,8.873116,-19.187563,-1.2972004,0.5102963,-14.262115,-5.3890476,0.1908783,-7.2669144,-4.8634806,15.440047,-16.797878,-3.9185414,0.4453977,-13.947134,-1.4297405,-3.0862591,-12.517954,-21.82061,16.606583,-5.5685854,9.755749,9.551022,-3.133579,-4.7721252,4.7431083,-12.781688,-0.14138804,-5.355182,-4.389052
31.495855,-57.7408,-7.121087,29.287895,3.4998806,-10.765247,-8.111547,7.594816,-14.355025,9.8612795,-6.5016847,10.170487,3.7896793,3.4002585,-12.545884,-2.8616347,0.8176998,-14.107023,-1.7701132,2.8902702,-2.3214138,-0.50818807,8.841145,-17.32662,-1.2961566,0.5069726,-11.758806,-5.346961,0.15366441,-6.316257,-4.916319,15.622628,-15.386178,-3.9316673,0.43035793,-13.192058,-1.390665,-3.1126246,-12.132102,-22.066872,16.792807,-5.6153965,9.850012,9.841608,-3.5526345,-4.8569994,4.8561788,-15.261834,-0.20521304,-5.366408,-6.116375
28.90162,-54.39328,-3.834662,27.941355,4.2597175,-9.778978,-8.011171,7.3881516,-10.141625,9.806912,-6.313715,14.2393465,3.6389496,2.9616044,-11.191182,-2.7956576,0.81604964,-13.285227,-1.740149,2.813128,-2.4281478,-0.5213487,8.2906,-14.369103,-1.284054,0.5042946,-8.858291,-5.054739,0.13332321,-4.8931303,-4.7507563,15.027093,-12.289486,-3.7641912,0.38392618,-9.167421,-1.2291551,-3.0611954,-9.748322,-21.017054,16.026743,-5.4228244,9.508682,9.975551,-1.2992009,-4.641172,4.6727123,-13.558053,-0.21859106,-5.1731267,-6.251919
32.00065,-58.632397,-7.252558,29.71172,3.1667109,-11.116004,-8.166746,7.679722,-15.375354,9.940041,-6.5903635,9.66853,3.868155,3.230589,-14.366472,-2.8828497,0.81551903,-16.831287,-1.7498753,2.8980813,-3.995381,-0.51110834,8.85304,-17.819576,-1.2984436,0.5051399,-10.73927,-5.3668804,0.1239066,-5.6896625,-4.968136,15.932585,-15.479408,-3.9703884,0.42346603,-12.665658,-1.3955789,-3.1477256,-12.050875,-22.413641,17.0495,-5.6820974,10.053866,10.337254,-1.6368364,-4.870653,4.838464,-13.161749,-0.16198146,-5.453641,-5.015117
30.622484,-56.41967,-6.2641854,28.69722,3.247097,-10.642259,-7.9711466,7.4885097,-14.255623,9.765223,-6.430038,10.846707,3.7673366,3.0174642,-13.352348,-2.8365512,0.8156225,-14.835723,-1.7467989,2.8546522,-2.8800757,-0.51544017,8.496631,-16.417856,-1.2902663,0.5033453,-8.874229,-5.1533885,0.09466165,-4.5958185,-4.84402,15.47747,-13.923181,-3.8514705,0.3899046,-9.736783,-1.2842417,-3.1260028,-10.317669,-21.645493,16.485842,-5.5413427,9.804071,10.3016615,-0.033271626,-4.683017,4.6526384,-10.557094,-0.12568823,-5.339309,-3.983014
30.001015,-55.29638,-6.1684337,28.10597,3.1566653,-10.462404,-7.8513994,7.365393,-13.607635,9.547998,-6.3162065,10.161503,3.7082577,3.0546343,-12.705927,-2.8086739,0.8142192,-14.901457,-1.7249153,2.82425,-3.3946576,-0.51458585,8.352161,-16.114805,-1.287861,0.50511366,-9.726539,-5.130414,0.12459347,-5.2491226,-4.7783065,15.08837,-13.9216,-3.819806,0.4123826,-11.198557,-1.3212496,-3.059147,-10.952681,-21.212889,16.165634,-5.459406,9.584442,9.938103,-1.2600647,-4.665681,4.653562,-12.595234,-0.1740635,-5.236701,-5.0737476
30.620337,-57.256424,-4.7171116,29.343761,4.3950443,-10.268299,-8.244535,7.6601176,-12.425565,10.176833,-6.5602527,14.145514,3.7782967,3.0422118,-12.366272,-2.8648756,0.8197879,-12.690676,-1.7878072,2.8927083,-1.3981627,-0.5158933,8.715261,-15.882286,-1.2924395,0.50279963,-8.339598,-5.200877,0.100331575,-4.439109,-4.91881,15.765417,-13.592067,-3.877543,0.36830807,-8.59632,-1.2490293,-3.1708307,-9.82016,-22.05044,16.79043,-5.621984,9.917112,10.23355,-1.61599,-4.8049316,4.8071885,-13.264403,-0.182425,-5.3807006,-5.6236515
30.221874,-55.980545,-5.56208,28.620193,4.142369,-10.1108265,-8.000123,7.486482,-13.280649,9.886092,-6.423088,12.885135,3.7241473,3.1108246,-11.850652,-2.8341417,0.8206723,-10.815863,-1.7955022,2.8711338,-0.10903914,-0.5064359,8.604267,-16.318188,-1.2893703,0.50434446,-9.235612,-5.1389303,0.11410976,-4.7704835,-4.829667,15.362082,-14.001614,-3.82026,0.37115887,-8.57777,-1.245137,-3.1321194,-9.699496,-21.517298,16.396235,-5.5241823,9.687773,9.7857895,-2.038771,-4.705461,4.7029033,-12.338219,-0.15813097,-5.300972,-4.900326
30.900972,-57.412224,-5.4454165,29.348986,4.2215033,-10.367934,-8.200411,7.646119,-13.192116,10.123133,-6.5508714,13.393882,3.769253,3.1455293,-11.801922,-2.8667388,0.8213877,-11.244893,-1.8059642,2.904065,-0.31199023,-0.5136654,8.769297,-16.08327,-1.2930602,0.50344914,-8.855164,-5.2199497,0.10330263,-4.6492667,-4.9192657,15.765834,-13.882774,-3.8798327,0.36956623,-8.710207,-1.2497333,-3.1798806,-9.814323,-22.059284,16.795315,-5.6234865,9.911591,10.140039,-1.9285935,-4.7986784,4.798448,-12.938297,-0.17170143,-5.390147,-5.3061633
29.676308,-54.731583,-6.230883,27.771523,3.2798688,-10.277964,-7.8069916,7.2866015,-12.517445,9.392072,-6.240579,9.778702,3.6620328,3.354842,-11.563978,-2.7894745,0.8140426,-14.524009,-1.7100332,2.8024867,-3.6655805,-0.50396186,8.397325,-17.046263,-1.2909238,0.5128361,-15.082475,-5.3306117,0.27042726,-8.299746,-4.7328787,14.79626,-14.686925,-3.8233185,0.45709056,-14.1549225,-1.4055843,-2.9757903,-12.267482,-20.953482,15.968241,-5.4037,9.432367,9.650578,-2.3636625,-4.6700497,4.680395,-14.615855,-0.22927994,-5.1520696,-6.3785996
34.680588,-62.816788,-9.686113,31.508017,3.2672582,-11.807451,-8.518257,7.985429,-17.081198,10.225026,-6.8422203,7.5603127,4.0942526,4.1667194,-17.106333,-2.9541738,0.8088057,-22.000803,-1.7269775,2.9372122,-7.2094817,-0.47775254,9.64486,-24.577948,-1.3231461,0.52589154,-25.843931,-6.23103,0.48831385,-13.691748,-5.1515617,16.650064,-20.981937,-4.2175756,0.558489,-21.436758,-1.7042848,-3.0837615,-16.924196,-23.737997,18.003853,-5.9079914,10.511707,10.431979,-2.9845328,-5.076558,5.048149,-14.405012,-0.1700421,-5.6461325,-5.706153
30.673195,-54.643436,-10.09226,27.272476,1.9591337,-10.79347,-7.3983297,7.0663743,-16.982656,8.75534,-6.0735064,3.4310157,3.7967615,3.7747588,-16.719913,-2.7622871,0.8008388,-22.336374,-1.6205165,2.730921,-8.22791,-0.45948228,8.499773,-23.484434,-1.2997959,0.5290343,-25.910883,-5.7059035,0.49836653,-13.361801,-4.643225,14.499179,-19.653402,-3.8760343,0.5734793,-20.72784,-1.6347879,-2.8316345,-15.639388,-20.660822,15.73687,-5.3373075,9.353524,9.234284,-0.48261634,-4.4803514,4.434679,-8.7513275,-0.08239153,-5.1597013,-2.662726
31.706333,-56.52989,-10.325435,28.138914,1.1626548,-11.580644,-7.5413837,7.2519197,-18.731192,8.982702,-6.2414813,3.1596155,3.8463657,3.350111,-16.953278,-2.807725,0.8048703,-22.078394,-1.6492847,2.7928648,-7.5355444,-0.48741323,8.492333,-20.90834,-1.297568,0.51574725,-17.321293,-5.458029,0.2560863,-8.6087,-4.764538,15.1858,-17.438307,-3.909182,0.5022598,-16.380625,-1.5090839,-3.0007923,-13.477595,-21.362337,16.25665,-5.4716663,9.74763,10.264137,2.4588308,-4.530522,4.4353857,-5.641752,-0.017137773,-5.340311,-0.78231126
34.07469,-62.397343,-7.8074875,31.577795,2.9149008,-12.014596,-8.531932,8.067188,-17.608152,10.424389,-6.951514,9.39561,4.0503902,3.1848063,-16.031895,-2.9739563,0.8179121,-18.576553,-1.7730212,2.987432,-4.8773713,-0.5149062,9.28583,-19.059263,-1.3101588,0.5035157,-10.776507,-5.630667,0.11112855,-5.751806,-5.1966257,17.047455,-16.172716,-4.1291227,0.4041823,-12.198599,-1.4193063,-3.2873209,-12.157165,-23.838484,18.105616,-5.9539967,10.70468,11.396729,0.39747238,-5.0718403,4.9911184,-11.472918,-0.12689844,-5.7358427,-4.217513
36.849678,-67.88036,-8.112991,34.26822,3.9888175,-12.529027,-9.251643,8.620935,-17.269361,11.307265,-7.391037,11.875512,4.2610064,3.8095214,-16.986101,-3.0886672,0.8196787,-19.572336,-1.826535,3.1049995,-4.9018126,-0.5093675,10.193329,-21.81099,-1.3293271,0.50810534,-14.915269,-6.116825,0.19749081,-7.968368,-5.507224,18.208984,-18.63009,-4.3789935,0.4434313,-15.448597,-1.5689015,-3.385212,-14.5956545,-25.758587,19.505238,-6.29798,11.363788,11.672179,-2.5432553,-5.454834,5.3903813,-16.319098,-0.1831162,-6.018168,-6.3870544
35.160973,-63.48599,-9.860871,31.850517,2.7302208,-12.236118,-8.455879,8.051862,-19.596022,10.291559,-6.9486637,7.129912,4.175317,3.556686,-19.422,-2.9789138,0.8115438,-22.838932,-1.7397103,2.9755492,-7.0465508,-0.48520046,9.5922365,-23.103388,-1.3168747,0.5097419,-15.324799,-5.823833,0.19395739,-7.764242,-5.2074986,16.992048,-19.55483,-4.209559,0.47382715,-16.638128,-1.6108118,-3.2138314,-15.001327,-24.034988,18.232096,-5.976869,10.687502,10.763045,-1.5361712,-5.1258354,5.0225286,-12.741487,-0.09768097,-5.759509,-3.8532534
34.440247,-62.3464,-9.432866,31.289762,2.8634458,-11.918668,-8.378417,7.941071,-18.654833,10.177787,-6.82514,7.5349283,4.1225367,3.5726755,-19.168915,-2.9505377,0.80825406,-22.996569,-1.7221019,2.9347444,-7.380013,-0.4855829,9.404797,-23.173532,-1.3149909,0.5139467,-17.17367,-5.8214407,0.2533139,-8.672374,-5.1345644,16.679806,-19.482727,-4.158486,0.48762274,-16.597767,-1.5833881,-3.1676311,-14.720827,-23.599962,17.908247,-5.8937464,10.544096,10.659503,-0.6370786,-4.98516,4.9009614,-10.640043,-0.069773585,-5.691998,-3.1374507
31.52326,-57.429955,-7.7093554,29.063211,3.3931365,-10.7216015,-7.9631777,7.516692,-15.51045,9.734715,-6.471963,9.535322,3.8712678,3.3867464,-15.568914,-2.8488944,0.8123464,-17.399893,-1.7320478,2.8579443,-4.1534834,-0.48709255,8.849573,-19.8745,-1.2975688,0.50982565,-13.875807,-5.389648,0.19902419,-7.039717,-4.871046,15.502986,-16.839275,-3.9299912,0.445361,-13.706777,-1.4514184,-3.0672016,-12.798668,-21.901064,16.664883,-5.5818825,9.808864,9.71743,-2.2917953,-4.77822,4.737954,-12.819006,-0.13260134,-5.3618083,-4.4702473
33.422836,-61.198215,-7.5714116,31.051987,3.87078,-11.260214,-8.426432,7.950772,-16.887325,10.398094,-6.8437796,10.952437,4.0329905,3.320967,-16.57595,-2.9462311,0.8175179,-17.025793,-1.7919624,2.9668055,-3.3668585,-0.49483448,9.332723,-20.102638,-1.3061867,0.50365055,-10.381171,-5.493186,0.09928163,-5.2745147,-5.1198196,16.562935,-17.329603,-4.076935,0.40844584,-12.247303,-1.4406055,-3.2301583,-12.555103,-23.359854,17.749619,-5.8661957,10.379632,10.237082,-3.2306283,-5.058176,5.002456,-14.512292,-0.14274654,-5.627498,-5.073346
31.058756,-56.8589,-7.115285,28.871017,4.1053424,-10.265417,-7.971093,7.48433,-14.274554,9.711353,-6.440869,10.171976,3.8868334,3.5629668,-16.34494,-2.8365326,0.8095757,-18.924688,-1.7063419,2.8339658,-5.5259876,-0.46913597,8.949049,-21.368032,-1.2993094,0.5143929,-16.764334,-5.5054083,0.29378888,-8.927728,-4.842964,15.195035,-18.442162,-3.9466825,0.489125,-16.904211,-1.569714,-2.972398,-14.710625,-21.717253,16.531595,-5.549298,9.60793,8.930968,-5.902539,-4.8774076,4.865595,-18.229641,-0.22165021,-5.272385,-7.131677
32.881943,-58.280834,-11.230902,29.00342,1.6550088,-11.654563,-7.6474695,7.4058285,-20.6057,9.213769,-6.400143,3.135415,3.9872174,3.5203114,-19.2299,-2.8495998,0.8055011,-22.53305,-1.6751186,2.8380055,-7.214039,-0.46506783,8.900338,-23.67261,-1.3040144,0.51574206,-17.93611,-5.5675974,0.25219902,-8.74916,-4.8601522,15.491512,-19.871803,-3.9964042,0.5094957,-17.423695,-1.6039053,-3.0263753,-14.747074,-21.96675,16.701641,-5.5900226,9.890876,9.756149,-0.25345355,-4.6974087,4.5821104,-8.167631,-0.013746604,-5.441287,-1.2217768
35.02144,-61.990204,-12.144664,30.78466,1.667482,-12.35877,-7.9838676,7.755859,-23.010082,9.693322,-6.6976347,3.0876937,4.1788964,3.5135994,-21.875166,-2.9328942,0.8059653,-24.888182,-1.7060382,2.920084,-7.7428007,-0.46592692,9.362022,-25.05012,-1.3126848,0.51176596,-15.644844,-5.676313,0.16634038,-7.2439713,-5.069551,16.478575,-21.17243,-4.141793,0.49829176,-16.987083,-1.6279291,-3.1597981,-14.997344,-23.289951,17.675419,-5.8390083,10.43409,10.278423,0.04871144,-4.8808894,4.732578,-7.293698,0.041868806,-5.707496,-0.19475597
32.619877,-59.830776,-7.112441,30.452675,4.3351526,-10.752428,-8.319463,7.8314424,-15.86771,10.32436,-6.7466674,12.213105,3.9866054,3.3724837,-16.274145,-2.916048,0.81776935,-15.854943,-1.7984333,2.9394522,-2.4142845,-0.4833693,9.2747135,-20.4564,-1.303232,0.50604624,-11.923042,-5.453991,0.14127156,-5.8741417,-5.0359664,16.236458,-17.370255,-4.013335,0.40297994,-11.611349,-1.4119132,-3.1919303,-12.1388445,-22.874964,17.393705,-5.7756357,10.181692,9.882243,-3.27497,-4.958404,4.912584,-13.698879,-0.12650685,-5.543502,-4.7325006
33.392525,-59.859123,-10.062894,30.02905,3.2240546,-11.206807,-8.001194,7.643902,-18.815006,9.787867,-6.5891085,7.187393,4.025341,3.722611,-18.100576,-2.8931928,0.8114887,-19.029947,-1.747203,2.901049,-4.3679476,-0.4627327,9.324009,-23.459435,-1.3070257,0.5132731,-16.622437,-5.602233,0.2316273,-8.143132,-4.9721227,15.884931,-20.070005,-4.0488114,0.48654655,-16.504059,-1.5907559,-3.0850887,-14.710677,-22.613317,17.178068,-5.7103972,10.017146,9.330999,-4.097879,-4.9026194,4.8325515,-13.338728,-0.08760584,-5.5018144,-3.7088733
32.64877,-59.41908,-7.9230437,30.14502,3.9316223,-10.846159,-8.161659,7.7413807,-17.110916,10.137279,-6.6721134,10.787736,3.9613237,3.3262784,-16.012413,-2.9046893,0.8183993,-14.736286,-1.80463,2.9344382,-1.5524563,-0.4852115,9.175329,-20.09567,-1.3002741,0.5039898,-10.156833,-5.337653,0.08921113,-4.853798,-5.000208,16.092587,-17.295156,-3.9844747,0.39852056,-11.051694,-1.3936081,-3.1923792,-11.791255,-22.661905,17.232742,-5.7358,10.085471,9.704497,-3.4657319,-4.909503,4.857633,-12.999062,-0.103058465,-5.5218816,-4.049253
