41.33563837801738,-64.33103889145052,-32.18726978062648,30.130800711631455,-4.5897337240261855,-15.518366116501642,-7.04703493359746,7.300046184087223,-43.29629194422459,6.014488497091815,-5.582130254188115,-47.71415256157936,4.791122048946289,2.981160488180252,-49.712094089275546,-2.920614339529743,0.7968964914225877,-93.8777998684421,-1.1432460991253717,2.585989647130538,-53.21189964297209,-0.4619593079140361,9.597138497833297,-40.6636867596668,-1.3214311756213135,0.5276176770933827,-3.3815073739258352,-5.501378605422292,0.22920906372737976,-3.0513590768698062,-5.017593441924084,16.476212896667285,-64.8416284610418,-4.898624044576525,1.779709131939275,-103.62114304579339,-3.9827841738679997,-1.5050191266912265,-55.10536812494031,-23.309599052758777,17.70522936289825,-5.847499401549308,8.228650887630168,2.2462553070431373,-68.9332924495586,-6.773191961198181,7.80934119050243,-103.20931762756368,-1.6230448239081883,-4.913706552993939,-46.75062180494409
41.40310609160174,-64.27677245394523,-32.955775045989526,30.103605671501526,-4.85204655924386,-15.682329545704485,-6.998913972886486,7.283039746188244,-44.429643124696625,5.937222482661694,-5.576843233332716,-50.783977574711066,4.818925924300684,2.7240079082889412,-51.99236048039136,-2.920614339529743,0.7968964914225877,-98.32336424744831,-1.1121320246604955,2.5724670165796293,-55.507962140343615,-0.4619373618998896,9.593367047800111,-41.997385596280196,-1.3214311756213135,0.5276176770933827,-10.506897376568913,-5.5922455169756535,0.2780686012702898,-7.034918653642818,-5.01756672670865,16.45513130907057,-65.15733021481772,-4.922243638357155,1.8139712734142819,-106.95763912390669,-4.061686157621751,-1.4962500454683896,-57.10911531754715,-23.309599052758777,17.70522936289825,-5.847499401549308,8.271630230198532,2.4471395036863273,-66.25586620419344,-6.750395745032768,7.743255894608083,-102.4929472079908,-1.581886540567554,-4.937892760344875,-46.774465884181225
41.798148276224495,-64.40436589138605,-32.918843378152815,30.09638034091259,-5.184963598016568,-15.801745493325987,-6.927290041804049,7.258866402210997,-44.960904950004846,5.770160659315696,-5.603723114878304,-53.526572688548356,4.910329488232907,2.494101164329366,-58.79618654486603,-2.920614339529743,0.7968964914225877,-107.9125978082714,-1.0330191002664666,2.5365372227362735,-60.9602895037776,-0.4626614629775872,9.4315586437638,-42.353785951391835,-1.3214311756213135,0.5276176770933827,-0.9636949445260186,-5.34738068666489,0.1319013244413586,-1.8040656187444917,-5.014291060892257,16.230873450298297,-67.70823235091149,-4.981496409311646,1.9064398056921106,-110.98910860670037,-4.237695410181256,-1.4003760925483688,-60.526817884379525,-23.309599052758777,17.70522936289825,-5.847499401549308,8.156038832327745,2.160436311483619,-71.96010060499577,-6.85659402161128,7.9419065004667075,-107.15496327495475,-1.7100331904602646,-4.884951993281048,-48.544307561830564
41.582288465541666,-64.2201356592471,-32.39358842155156,30.10172483259956,-5.295598597214166,-15.830051747939782,-6.908960821630789,7.26026889362341,-45.56958440877448,5.8119335971913735,-5.654267510656782,-54.10158234424423,4.926867489531839,2.324729846818506,-61.1699134378642,-2.920614339529743,0.7968964914225877,-112.36331559583225,-1.0225859061195293,2.5321159967415587,-62.876689293236524,-0.46268197039937525,9.383129346872312,-43.4888547075096,-1.3214311756213135,0.5276176770933827,-2.78147149372521,-5.295438187348944,0.09842643931712891,-2.4338619193560653,-5.014616245652085,16.221522611529352,-68.84626496893645,-4.982402273235685,1.9038359465369097,-113.48360872299786,-4.246876586767821,-1.4312779670935634,-60.94451773394685,-23.309599052758777,17.70522936289825,-5.847499401549308,8.195005195599446,2.3586519567478232,-70.33055927743338,-6.8391082724267775,7.873037522134325,-105.83820930243968,-1.6631841812582782,-4.911419494161415,-46.97390346227721
41.62952086799998,-64.19631903787194,-32.43401392391652,30.087325914904984,-5.463476964222226,-15.881934295260123,-6.884692673800931,7.2541528370891655,-45.19743599493142,5.7800037105612905,-5.651432474599716,-52.97529093142889,4.923926620075892,2.334229882724923,-59.88874448425092,-2.920614339529743,0.7968964914225877,-109.88529803191976,-1.0311860761037113,2.5381860668122744,-61.73417083740033,-0.4627289421661892,9.278498899757851,-40.98829884077947,-1.3214311756213135,0.5276176770933827,-0.4880180665331544,-5.2870126531433055,0.1009287579932785,-1.501231758925801,-5.017889124345069,16.04831688348675,-66.58408224417053,-4.976127597727762,1.9003522082325612,-110.95192382414383,-4.233051721339276,-1.4344931046216112,-60.43776581676218,-23.309599052758777,17.70522936289825,-5.847499401549308,8.145136592158739,2.4846430901859913,-70.57807387413204,-6.858996227171733,7.935051599725565,-107.82980414276582,-1.7213528789123018,-4.881205066585756,-49.383976354132926
41.42983501463085,-64.23516464381362,-31.5996632336379,30.13993931381115,-4.790677540127152,-15.56855866818314,-6.924585046349723,7.268878116710383,-44.65687146138953,5.872770101452021,-5.668267071961457,-51.421869820370055,4.933028151043138,2.61032671319695,-59.57777722358086,-2.920614339529743,0.7968964914225877,-108.16952974593202,-1.0384576785750945,2.542040217270907,-60.62708039200168,-0.46291747372282144,9.259175642334958,-39.98268804949401,-1.3214311756213135,0.5276176770933827,-0.1363709493563121,-5.250186213424408,0.07912822018310356,-1.1483864454730668,-5.018273284399092,16.10979842087333,-66.28451935560935,-4.9617804035964825,1.876788843925894,-109.78107559088976,-4.172569165241308,-1.457507644272938,-58.67156920116686,-23.309599052758777,17.70522936289825,-5.847499401549308,8.171557430799204,2.5692223869290816,-70.67370355752,-6.844619736703532,7.914809783944273,-105.67132658700385,-1.7068262582310838,-4.882723707920948,-48.13221259887571
40.89319399763924,-64.04614106389198,-30.74842346117152,30.145521647591764,-4.709070018541988,-15.542723225944025,-6.998029530121139,7.289968219234487,-43.41625494046519,5.97504291424398,-5.688713381682213,-49.69597381752491,4.859647197705547,2.7179450870452815,-55.67576971523182,-2.920614339529743,0.7968964914225877,-103.72621605384661,-1.0898179312149545,2.5661311215464533,-58.21807790855632,-0.4624381715769533,9.430823746835086,-41.086818837308265,-1.3214311756213135,0.5276176770933827,-3.983758513146391,-5.368191296331103,0.15142699627343337,-3.5605351521784776,-5.01932809695338,16.164374162198985,-64.97471059832304,-4.928737246132142,1.8248013721714935,-107.4986314117517,-4.095255094712364,-1.5157558851106894,-57.96394875266729,-23.309599052758777,17.70522936289825,-5.847499401549308,8.215520937890425,2.4037481863152976,-68.63343532462123,-6.7969709188882135,7.823943307312675,-105.32021046637495,-1.6216246481918424,-4.93261760334079,-47.2694047771044
40.46700314692695,-63.950682728884985,-29.46890600580397,30.247478454107952,-3.869563033213336,-15.046360465201712,-7.282496007525734,7.399440791496153,-39.52091249678329,6.496628202583617,-5.8676382593699685,-44.41972306798082,4.758187218069765,3.355690981120844,-54.53520595540603,-2.920614339529743,0.7968964914225877,-99.3458132406765,-1.1098301994271704,2.580349758767763,-54.67222082290458,-0.46255096182135064,9.486638068629183,-39.30250695552083,-1.3214311756213135,0.5276176770933827,-6.0349749405828845,-5.387946415687164,0.1523771708253976,-3.1282758902590864,-5.02634944855192,16.036726083197053,-63.13508957621195,-4.874665966119484,1.7340632960997449,-103.72252939760742,-3.8983596087573815,-1.602905676366531,-54.174276784759996,-23.309599052758777,17.70522936289825,-5.847499401549308,8.45537174753731,2.8562887359675573,-63.59444835822229,-6.49751833823381,7.50394108805284,-93.64403525913109,-1.5334512557932491,-4.976918301553554,-42.96603557501375
40.726075181480766,-63.9120605827629,-29.819282448653706,30.225873746378397,-4.185435913237409,-15.158633791614104,-7.217348935174441,7.377265492670143,-40.37288876173896,6.350540698820829,-5.811795404966889,-45.67537179319166,4.791827707417898,3.3488537582686786,-56.895399779910626,-2.920614339529743,0.7968964914225877,-102.28545774775753,-1.0772670503614572,2.5662676253380905,-56.878695771986145,-0.4625728261234512,9.399231726336781,-39.021701461618164,-1.3214311756213135,0.5276176770933827,-1.7088069818608176,-5.305935056883363,0.11823451753412745,-1.0281829059293717,-5.0246205862396875,15.985089519939383,-65.64487011435256,-4.911417280385314,1.7942005479349863,-106.66490911646841,-3.975745337214369,-1.532466548548627,-55.68080289926486,-23.309599052758777,17.70522936289825,-5.847499401549308,8.350034951600628,2.8591136734644937,-67.48729342796368,-6.621197904985932,7.692673659662679,-97.40751842281037,-1.6412524980387233,-4.919161973370677,-44.8678091640499
41.42946271960565,-64.3615972468401,-32.10095103156703,30.172143107859963,-4.6875372968596185,-15.427829078221908,-6.989953251799399,7.285115586251678,-44.545707940291855,5.952186474269638,-5.6558935601824265,-50.578726974899894,4.9271266195932375,2.2096028126914824,-61.87137948518793,-2.920614339529743,0.7968964914225877,-114.34517226459917,-1.0305654378075872,2.54144341091931,-62.85723713945601,-0.4623524913178324,9.222792286497215,-41.580421758323794,-1.3214311756213135,0.5276176770933827,-0.5228186497438401,-5.257185257114383,0.0997787281708038,-0.8965665987499527,-5.01807793999047,16.3475629980291,-69.41133099581289,-4.948869286229938,1.8672506364616352,-113.69671952313449,-4.145366780667095,-1.4329393690105225,-59.33968619581705,-23.309599052758777,17.70522936289825,-5.847499401549308,8.174853896797211,2.2252493289547974,-73.28703623782103,-6.829638247584531,7.88878220034716,-103.86900262847476,-1.7175984944911655,-4.865119347013111,-46.613997077562985
41.373043384922966,-64.29756542093706,-32.15555655468297,30.164043276860554,-4.838511000028447,-15.519634567301411,-6.963765686999471,7.28125413884313,-45.239349000481624,5.941806410886471,-5.689337362919649,-51.9439564129897,4.931994670765333,2.3291793572193704,-61.75197005243253,-2.920614339529743,0.7968964914225877,-113.35033722225688,-1.029219674887593,2.5365202256499444,-62.658938585213185,-0.4628122815478245,9.15024665644745,-41.85428816015725,-1.3214311756213135,0.5276176770933827,0.5625186169472194,-5.1578605866554135,0.039583012843439125,-0.3352554621644366,-5.016254512253976,16.37893324525242,-69.2254265015742,-4.953398245636824,1.864681002555816,-113.28487911027419,-4.173728724106563,-1.430115913935403,-58.953398230357664,-23.309599052758777,17.70522936289825,-5.847499401549308,8.21521252544551,2.4782328844999766,-71.57553864259714,-6.825531044218267,7.847988491778525,-101.82540735980325,-1.6760119917977152,-4.887818324125762,-44.8951381649285
40.9681003351171,-64.07391922440583,-30.80302087389624,30.184491775432196,-4.274071460256444,-15.288861720980863,-7.096027261203692,7.325706372769541,-42.48931758219386,6.031898755331231,-5.6542222539499605,-48.707001115546056,4.875895526744292,2.4706038044156915,-57.724499883519655,-2.920614339529743,0.7968964914225877,-108.86911768665126,-1.0602985287483895,2.5526515796006146,-61.176356603100146,-0.4625597521960977,9.226108085122627,-40.58818507744344,-1.3214311756213135,0.5276176770933827,-6.910232638898101,-5.388663503361224,0.15904167963937316,-5.409644208087734,-5.019296614258924,16.463995763243716,-64.66728819963527,-4.915751274240033,1.8075612618014145,-108.89544997006399,-4.051732297179053,-1.5076951925265238,-58.48954397979952,-23.309599052758777,17.70522936289825,-5.847499401549308,8.272740456030112,2.8062328016064146,-66.83946394546142,-6.756520189090807,7.736439001984744,-103.2095156786632,-1.6131316661175343,-4.919721046561075,-47.38734675826893
40.72395150584897,-63.98849668718844,-30.22113878031619,30.211548914953287,-3.8383862307272394,-15.09230971566925,-7.139793136390701,7.342193750968859,-42.46928947037766,6.1604698688769215,-5.650642453014733,-47.95086584590761,4.857561249272214,2.187013971080118,-56.89389462541394,-2.920614339529743,0.7968964914225877,-106.91731477073458,-1.0671418142883327,2.5532153108434503,-60.59753292841964,-0.4630426577281052,9.125524215487177,-40.213826561374525,-1.3214311756213135,0.5276176770933827,-5.586633776825089,-5.328107634221127,0.12363937604928099,-4.745690518204153,-5.020237593877375,16.578195106980875,-64.14330046339528,-4.894701689448448,1.7692123904637933,-107.07770320591113,-3.989080603931332,-1.5419113376655633,-56.7524553681249,-23.309599052758777,17.70522936289825,-5.847499401549308,8.325798194351362,2.9647588129419304,-65.25734988636258,-6.732409319793413,7.686264592665417,-100.57181719263905,-1.5777227959788005,-4.93279535308218,-45.59418715733851
40.093409518924744,-63.61950989016997,-28.55962601584172,30.245618535523775,-3.7507091303151223,-14.95299434247073,-7.140600193204049,7.351769979781773,-42.70361426193517,6.30247614579093,-5.757188189385761,-46.00721318645375,4.881036877849788,2.553396931949906,-58.808464553111776,-2.920614339529743,0.7968964914225877,-110.97703002584994,-1.062321755016665,2.55045501771702,-62.824862375275465,-0.46315261221924553,8.989524142049225,-40.339229714471124,-1.3214311756213135,0.5276176770933827,-11.904697776513512,-5.379779036481146,0.14810915682965253,-7.91840416533362,-5.022129331117369,16.45977472709829,-64.1393826231453,-4.89179917260504,1.7647526308195816,-109.12010055645077,-3.9925203322870004,-1.56854479854553,-57.629185172579085,-23.309599052758777,17.70522936289825,-5.847499401549308,8.340558719682855,3.8173328313351833,-62.686074846486925,-6.71986910196668,7.660620013005863,-100.72407320429463,-1.5569031607936128,-4.956220397573771,-45.365425153089845
40.93080823615946,-63.99152982885008,-30.113742974481774,30.192187005492606,-4.003687032242738,-15.14678085263109,-7.140501702816692,7.334494796027065,-41.98278268542313,6.227357365650365,-5.694881427299677,-45.18998307552509,4.910947139110837,2.3735065386928085,-58.86770512670747,-2.920614339529743,0.7968964914225877,-109.40806195544526,-1.0368292070392586,2.5419608981105197,-61.51044859872499,-0.4625491250266274,9.308657709885797,-40.901888406395855,-1.3214311756213135,0.5276176770933827,-5.211324124199706,-5.495225134765937,0.21797578476425,-3.395896127476915,-5.01858543187966,16.483104536877303,-67.0222273441894,-4.940001509622503,1.849704076195585,-109.14803072353762,-4.099354702627807,-1.4557275812585166,-57.05863233048247,-23.309599052758777,17.70522936289825,-5.847499401549308,8.190517914127248,2.639493891239608,-68.24185602450684,-6.824399431059819,7.892825474226828,-103.81358446426833,-1.7203366967603968,-4.875436533611086,-47.2417468731457
41.21586030666342,-64.40206394196643,-31.48423628816098,30.14081132291682,-4.483088495794178,-15.430907887470571,-7.055964065167102,7.305651268112855,-43.589046448687654,6.153783951327044,-5.714632549821333,-47.32467280150162,4.953077139675491,2.8196946062967276,-60.96379179998144,-2.920614339529743,0.7968964914225877,-114.77021870147853,-1.0238187247490718,2.5391377796805856,-63.32996819032534,-0.462041381334396,9.42264707657825,-43.30942297756979,-1.3214311756213135,0.5276176770933827,-14.322832686763794,-5.598737543770139,0.25051920291797153,-7.988601800795916,-5.0186727029352705,16.404689169945275,-69.10897178947928,-4.960939277117825,1.8829275840399657,-115.05118337223374,-4.180845588397028,-1.4843981208780108,-59.10624626912421,-23.309599052758777,17.70522936289825,-5.847499401549308,8.221724242370584,2.868495801799054,-67.84170901593413,-6.753108280525823,7.796806892623772,-102.6970930949421,-1.677933338833136,-4.911456579129933,-46.89181871225455
37.71851213820336,-62.907584204809176,-22.303253253964307,30.23989187597158,-3.667777471608408,-14.862825238589286,-7.787657690006497,7.542977147884458,-28.7131107183298,6.619118124466687,-5.841931911958711,-43.45372565891735,4.528328037670985,4.387648899871555,-40.401944073585,-2.920614339529743,0.7968964914225877,-94.81370676180985,-1.156908157786133,2.6015575148336962,-54.72914338415504,-0.4586570790006773,9.90795973952515,-42.93759841750678,-1.3214311756213135,0.5276176770933827,-32.468233000320716,-6.411567996968928,0.7431605767531597,-16.155711912845096,-5.033800302377414,16.316971418042584,-60.58559109701672,-4.824234661019081,1.6676962708484169,-102.85419856984936,-3.6653569960588364,-1.7077126790025587,-54.54184571700979,-23.309599052758777,17.70522936289825,-5.847499401549308,8.500913464302226,4.218643811549146,-61.394865632310555,-6.440869636796818,7.558201040803352,-96.52239371469159,-1.6582189287076663,-4.92272194390964,-49.33562348261208
33.31531584703699,-61.4767563653983,-8.736224801182459,30.508853705966594,-2.1234286266511604,-13.866102647629884,-8.44058489315318,7.862897380041963,-15.934788209366694,8.751841503866622,-6.534916313598057,-16.184858001825127,4.115350731053452,3.4357786986631296,-22.92125540458458,-2.920614339529743,0.7968964914225877,-51.53383067781281,-1.4540183853630888,2.7799722611491635,-27.579976960204007,-0.4615430069064766,9.141112137068445,-18.391893914409152,-1.3214311756213135,0.5276176770933827,-31.634259368488504,-6.0853434900035595,0.5454284332930623,-19.571343110880587,-5.073895520043412,16.47248788961738,-24.882944360132953,-4.349267198113438,0.8998325995551555,-47.4521444778575,-2.0412638440735558,-2.7933995249172163,-26.618475153475575,-23.309599052758777,17.70522936289825,-5.847499401549308,9.916628526834275,12.068651149689027,-13.397554082043914,-5.511831554099995,5.897650825100629,-48.200189767274026,-0.8101051490414528,-5.312143063466413,-26.625134775611297
32.874204342810735,-61.28499681451341,-7.0962954913012215,30.742178832236238,1.0705896922980522,-12.390267421712593,-8.578892603668729,7.925377362572405,-15.328740345776506,9.953800066970313,-6.755595132694494,3.7692822063374036,4.060274469415366,3.959538837516578,-18.953235350306436,-2.920614339529743,0.7968964914225877,-33.71585046541297,-1.5960514428638346,2.8589940334659603,-15.465605794089445,-0.4623732887598399,9.313834057014985,-17.285272106513467,-1.3214311756213135,0.5276176770933827,-19.58444223937028,-5.877318201947248,0.42252483701803933,-11.033587503858469,-5.076841365566588,16.65623719411313,-21.480737482424544,-4.23139557475571,0.7158901219277952,-31.133446551524383,-1.6307162187605297,-3.0530739417389547,-16.791341647862094,-23.309599052758777,17.70522936289825,-5.847499401549308,10.074888390122089,12.57162647108002,-8.079305507799862,-5.268837849042758,5.63022916015078,-31.07755330015494,-0.5825171423294389,-5.411895158077393,-16.209719854942357
32.432284930071674,-61.24121543705331,-4.655971181695437,30.745434415455026,0.7699486419780674,-12.481931752444014,-8.670584456519896,7.950716819008707,-13.637471414243683,10.21383396859074,-6.810813376977992,7.031084594744172,4.014196058054323,3.735600634602585,-16.69064747758854,-2.920614339529743,0.7968964914225877,-30.74303575016732,-1.6171875474991897,2.8704629614477213,-15.632199927680018,-0.4628403064778408,9.085956919785955,-17.37593124358446,-1.3214311756213135,0.5276176770933827,-17.827800781846044,-5.808207005093252,0.38304226197206,-9.84567245308294,-5.076640897543523,16.680727113383874,-19.98563423170743,-4.211049055595821,0.6774026786420877,-24.17713056067186,-1.5703952517665403,-3.078839442367391,-13.725080186024615,-23.309599052758777,17.70522936289825,-5.847499401549308,10.157050542018075,13.736704145247543,-5.956766468348317,-5.326057536241619,5.61462887624326,-26.339878664436462,-0.5969861034754136,-5.399523494682596,-14.196205184872495
32.19649307290038,-60.99104709649817,-4.484558014577308,30.878933833864686,2.6335672993474497,-11.690667023661543,-8.647495574177043,7.970540944629282,-14.46267776506213,10.301240456930849,-6.82042801023025,9.26538450658856,3.988568378920336,3.319561247253197,-14.890734038886723,-2.920614339529743,0.7968964914225877,-22.028192050735708,-1.7193209607173179,2.9058233832877245,-8.717145885649288,-0.46547385579639244,8.981592438032987,-14.84642674860328,-1.3214311756213135,0.5276176770933827,-13.002756747480017,-5.542867706216342,0.19818383071657586,-7.058668255827414,-5.075970549586289,16.65167579142111,-15.00298703230563,-4.116737541302412,0.49401031718925487,-16.590861247098307,-1.35673383263547,-3.216482497257226,-11.123762504109841,-23.309599052758777,17.70522936289825,-5.847499401549308,10.416189315527724,13.420681971877478,1.758340616841883,-5.1220404122608185,5.186765451729452,-16.50590322535121,-0.26847468099519933,-5.526126272749448,-6.651987841325007
32.04681209388612,-60.83001497806552,-4.523088794827729,30.91771580017132,3.341303037944231,-11.50299866030598,-8.673211846172448,7.993114422697704,-12.755721412777788,10.63727467816084,-6.826082140676084,13.496875002336676,3.8976441731413507,3.002180476949083,-8.287228223161355,-2.920614339529743,0.7968964914225877,-9.85214207440135,-1.8184902643154708,2.9369857909511974,-1.9418278148922354,-0.46705145990986635,8.92552299636785,-12.061753042089704,-1.3214311756213135,0.5276176770933827,-7.688725062854804,-5.378276607971103,0.11038905076312294,-5.363726217177897,-5.076037726697493,16.535646758102395,-9.861779332674349,-4.060359121554,0.3851834508016394,-7.496116780466714,-1.2046174724615084,-3.2738658712957998,-8.428316732360772,-23.309599052758777,17.70522936289825,-5.847499401549308,10.489212487401593,11.972172468323805,3.7610748956309674,-5.03957255984197,5.021656805135058,-11.721547881578775,-0.2045732328156851,-5.544322292868255,-6.114734828920664
32.964607012083185,-61.275541319395,-6.704550084450996,30.811661925939823,2.6539768051051587,-11.990050497248614,-8.556636792835244,7.9205001659973036,-13.621466659490476,10.165862821553262,-6.625936002862932,9.304611156209567,4.091935112778091,3.5127258697461707,-12.540310065871793,-2.920614339529743,0.7968964914225877,-17.453358300522737,-1.7414126907169576,2.8918334757367714,-6.974721640246096,-0.4665335689625754,9.476306299725868,-17.897133067002482,-1.3214311756213135,0.5276176770933827,-17.79208358567638,-5.725441019079017,0.30193782845555245,-9.106558982074581,-5.0655015604300555,16.568488355104616,-14.961629037140888,-4.13404879517138,0.513518007814176,-14.657356132960825,-1.495992986224814,-3.1133164438951972,-12.698503556483267,-23.309599052758777,17.70522936289825,-5.847499401549308,10.325337848351898,10.191345616396648,-2.341649302936288,-5.053902621938516,5.1127273576920755,-12.91381023953045,-0.22229935122307962,-5.530540673985591,-5.937758877763661
32.4569382039264,-60.86906069768816,-5.384669403283042,30.93150541310135,3.311447860358467,-11.432662031342925,-8.628097688361585,7.976301626866099,-13.246603862127081,10.597290890354829,-6.820862839339958,14.053741261988467,3.966296533053591,2.689226311674487,-10.709357438445348,-2.920614339529743,0.7968964914225877,-9.974352312133867,-1.8189210526700377,2.9367119319518293,-1.492584656657062,-0.46670259090507943,8.952019998265829,-14.228046893907186,-1.3214311756213135,0.5276176770933827,-6.291241720158116,-5.376322024403885,0.10690129459879194,-4.204271499391869,-5.068671603953851,16.93925791647532,-11.522190791828258,-4.061488427557374,0.3866412351837295,-6.650760625984184,-1.270193112618316,-3.2682541881339207,-8.8267012162827,-23.309599052758777,17.70522936289825,-5.847499401549308,10.427818210705894,12.132850182289795,1.6865857265147728,-4.994869961825708,5.0224930178881575,-11.975111552005313,-0.16032003380609322,-5.568472800857337,-4.617573600114886
32.55911612983664,-60.91969862886956,-5.640335633114005,30.973159530266663,3.9736019759629677,-11.106354545675114,-8.705244327870627,7.985798668016823,-12.591062453606877,10.645553017127519,-6.810874771217669,14.976020942879154,3.9608277718441047,3.0044458221864865,-12.231563560795003,-2.920614339529743,0.7968964914225877,-10.56976513937219,-1.8437611200576456,2.9473396772676383,0.12918025286064427,-0.4665926318104435,9.296651448827404,-16.79986316503856,-1.3214311756213135,0.5276176770933827,-9.079697185397093,-5.36200514831872,0.10038444330612656,-4.706487498700357,-5.066002766033664,16.928365111425368,-14.435304524200445,-4.0630859994285276,0.38867427998963705,-8.427184453091257,-1.278926900922003,-3.255050233372073,-9.471029474326263,-23.309599052758777,17.70522936289825,-5.847499401549308,10.414359733943066,11.579813995143382,-1.3950690420470426,-4.955062613774555,5.002731048569842,-11.577621114265437,-0.15678610424784767,-5.5688829129841855,-4.5654021661121575
32.733937031830735,-60.94775973102829,-6.3139852491899795,30.950415318077575,3.7148370590311472,-11.25780502326565,-8.670404182110062,7.976257035402744,-13.130325529500116,10.617063951216721,-6.81666809826219,14.678428238030971,3.965003903349585,2.8333871893419884,-12.017319380627853,-2.920614339529743,0.7968964914225877,-10.148265744172576,-1.8369965537326651,2.9431818914711436,0.49144544428059866,-0.46650383728658507,9.280738129584746,-15.833804581008726,-1.3214311756213135,0.5276176770933827,-5.587632213447307,-5.36469684212859,0.1033413111503309,-3.406431896282813,-5.0659799795058715,16.937597429015,-13.921018461341419,-4.063794917755554,0.39119310839245613,-7.156646511914481,-1.2839902657573172,-3.245533842904058,-8.491953369406312,-23.309599052758777,17.70522936289825,-5.847499401549308,10.427529600716605,11.596806746929474,-0.47020687671316885,-4.961351113927507,4.997416107152158,-10.06720540597357,-0.15230229286124974,-5.570692223965472,-3.2125473914510945
32.70585211320955,-60.91769770712687,-5.929670817713743,30.966789333579317,3.7943307912139845,-11.20160947774051,-8.627921541641351,7.969646844073655,-14.061229948189368,10.585390344802155,-6.804014524624862,13.636192820345501,3.9697249659046245,2.818966821393449,-12.325535484674033,-2.920614339529743,0.7968964914225877,-10.47541386330752,-1.830161677379905,2.9416392259932658,-0.2539977131901878,-0.46651856386883994,9.225598659939228,-16.278006761480892,-1.3214311756213135,0.5276176770933827,-5.9158150484848235,-5.370409986161819,0.10137008481539944,-3.5995751101293223,-5.065612954060723,16.9382569790273,-14.277353749573102,-4.0667331364419335,0.3932234154551616,-7.734495093191079,-1.2958629080197368,-3.2551840488086325,-8.816281694669541,-23.309599052758777,17.70522936289825,-5.847499401549308,10.401316890797682,11.508937095877107,-0.50031333712022,-4.978672368541212,4.999014798697746,-11.666938922470152,-0.1474380742120005,-5.573873139837776,-3.8961820587540394
32.89275429463415,-60.96648454350567,-6.523496012356434,30.973549899226605,3.822291745304293,-11.175903226949801,-8.562438950677004,7.952438817536213,-15.670751690790393,10.603040946503938,-6.814096402668948,13.285819868761939,3.9639929895783386,2.89433375449565,-12.793131911930582,-2.920614339529743,0.7968964914225877,-11.209197785305292,-1.8343081284852738,2.9433914026564962,-0.5082768159091202,-0.46633336063948816,9.247311972843802,-17.004651478602952,-1.3214311756213135,0.5276176770933827,-7.053880699583484,-5.379298373427052,0.10228225235790728,-4.318551736008594,-5.065530698872528,16.88939932904754,-14.995484024291589,-4.070681012637454,0.3980949164045052,-7.942593189295696,-1.3008654269537128,-3.252009214244989,-9.185478512286489,-23.309599052758777,17.70522936289825,-5.847499401549308,10.41757746675088,11.405269529469214,-0.3803792658928753,-4.975612265642679,4.971593825864711,-10.78781259511073,-0.15307467026577232,-5.5704758837113095,-3.9770169873971835
33.10953760942149,-61.011566047703944,-7.271114956542779,30.92955834005276,3.6590021160336113,-11.368821630679564,-8.581850695761618,7.954430250660045,-14.800410567054447,10.667413996342196,-6.820327956034241,14.282049028130366,3.9958628804707494,2.9039936665070196,-13.182503413804627,-2.920614339529743,0.7968964914225877,-10.769605334035198,-1.8375680614283467,2.9443460517125666,0.5065304166875677,-0.4660554568203062,9.424915546964634,-17.117337544692486,-1.3214311756213135,0.5276176770933827,-6.5292881330437,-5.378819469198706,0.09233303002405929,-3.4020576957503827,-5.066892362055661,16.71660564232678,-14.930582525467642,-4.075514384064881,0.40507278489201604,-7.56047502086475,-1.3124449340335158,-3.2530599343178315,-8.7814612272149,-23.309599052758777,17.70522936289825,-5.847499401549308,10.38924776926602,10.8050974258298,-0.3677713374138172,-4.98841918016466,4.970273504084498,-10.344553878611123,-0.1435364959294425,-5.5756736774904825,-3.2606384822585106
33.16890937572646,-61.04135063562864,-7.252400314209332,30.926039270671286,3.799006637507137,-11.361301916577673,-8.566746894451882,7.949930326493884,-14.306514841956396,10.660098525349559,-6.809596396701805,14.191876748994702,3.964575719026673,3.185390276592139,-11.285199037385809,-2.920614339529743,0.7968964914225877,-9.50655851566881,-1.8515535316535878,2.9503848756611246,2.7456002300002798,-0.4662315635424571,9.50043080727573,-15.298484223359225,-1.3214311756213135,0.5276176770933827,-7.151477121387035,-5.3782003339362054,0.09072363337998152,-3.305300247698895,-5.066218409014663,16.7560138205081,-13.807180091888082,-4.071920388826073,0.3975093183650139,-6.288592000563764,-1.2867323441594252,-3.2667406917740633,-7.492411495776132,-23.309599052758777,17.70522936289825,-5.847499401549308,10.39403052454589,10.613590839436792,0.23145004279055215,-4.968731522530451,4.943840296392012,-7.948878571102618,-0.1377343320445013,-5.578362697376974,-2.623481143963197
33.445921502905435,-61.13325109875353,-8.749171271248635,30.932977759345977,3.8278008955114453,-11.355532124789416,-8.561066391667024,7.942511057583007,-15.219827442643902,10.655030652685811,-6.820201220774394,14.365395736443894,4.021951440310418,3.3205286373450185,-13.191510052970493,-2.920614339529743,0.7968964914225877,-9.67604946571354,-1.8352295400448726,2.9436368428026207,2.467126004818171,-0.4661576037829988,9.535749041028057,-17.831849839629662,-1.3214311756213135,0.5276176770933827,-7.171266096548166,-5.399330842244513,0.10039168920381952,-3.3130998399820815,-5.064156468024492,16.71298249693803,-14.797494743016811,-4.089282720825983,0.42658654657175665,-6.9298963859354,-1.3531211995700105,-3.239809655750279,-8.706125788039534,-23.309599052758777,17.70522936289825,-5.847499401549308,10.37799598761271,10.103946896068141,-0.4613867657043311,-4.982444161806101,4.9669985184297545,-8.70636350272379,-0.13875465564601536,-5.5774476798537,-2.980772720719999
33.46409285855224,-61.161240425533855,-8.234906151959867,30.92730611353077,3.8879177483081673,-11.343139293409937,-8.52603349422128,7.934344236039901,-15.634585086490873,10.533164659898583,-6.827112606308737,13.039536849528638,4.019792538085142,3.5128178681695155,-13.820726443275863,-2.920614339529743,0.7968964914225877,-10.287217840451909,-1.8400300009209098,2.9471354589970917,2.473555527274854,-0.4663473322484733,9.787730516112061,-18.402589632758115,-1.3214311756213135,0.5276176770933827,-7.44397222916216,-5.403379757312067,0.1041078739264033,-3.4749068124766325,-5.0636261879061735,16.77710820249453,-15.865123338700085,-4.0819215745093915,0.4173055139696497,-8.207749691490445,-1.3455423131843978,-3.2424827767200775,-8.543190453856885,-23.309599052758777,17.70522936289825,-5.847499401549308,10.372575678274059,10.012884665331983,-3.035806060894446,-4.992706918913983,4.98655070012709,-10.47439936992955,-0.13773972599909068,-5.578416355326656,-2.626374973711817
33.465536424778215,-61.15961917872855,-8.628825667415555,30.89422408732299,3.5249970401294903,-11.558282516768205,-8.56478915268483,7.941333919444719,-15.251391478670755,10.55897380514736,-6.844099027767129,13.575751231606,4.038568509237727,3.4118619852931302,-14.712531682472804,-2.920614339529743,0.7968964914225877,-11.43371762125403,-1.8311616943720466,2.943582123563312,1.523063679447084,-0.46653237435548095,9.751633845376507,-18.862388952044796,-1.3214311756213135,0.5276176770933827,-7.52199123322119,-5.391399158318851,0.0929410120110033,-3.5210630697182044,-5.064231379208501,16.714620430319485,-15.96111008453393,-4.085597482634752,0.42345846450116315,-8.658540586914192,-1.363366446758389,-3.226721212631328,-9.422626148873466,-23.309599052758777,17.70522936289825,-5.847499401549308,10.367392364829877,9.795021358515436,-3.4739408537210785,-5.006760073122642,4.992653366437881,-11.729471986896947,-0.1512466631805381,-5.573378865676536,-3.629026109346606
33.08445722597092,-61.03408293710083,-6.970808039458172,30.90687400228361,3.5393330992095673,-11.472530349209142,-8.590683433345678,7.9499573426355585,-15.096348129966183,10.530152640088268,-6.834679600823834,12.650247294381549,3.9905807082885785,3.2183509823883663,-13.80513733406146,-2.920614339529743,0.7968964914225877,-10.842271296863057,-1.8352996720153958,2.945208618251507,1.345153794355447,-0.4661178525989504,9.823165877240125,-18.052905159763466,-1.3214311756213135,0.5276176770933827,-6.620427528615124,-5.360467300007113,0.08396212899371525,-2.942380428238099,-5.062301046093501,16.916225006113834,-15.309457770093678,-4.078414129612547,0.41087974348159545,-7.03102791986198,-1.348424575187451,-3.2290699618582033,-8.589086329903148,-23.309599052758777,17.70522936289825,-5.847499401549308,10.358123212034496,10.137635978989023,-3.5754261460461194,-5.005256178465983,5.0172879592080815,-11.401645282679517,-0.17739024931700847,-5.561146281279643,-3.3584267281983493
33.380370164666914,-61.0704870805462,-7.985986838886246,30.900454454801586,3.4495966787310417,-11.531958230955816,-8.554006147835004,7.941432983858832,-15.447092963772084,10.538716124178196,-6.8368870738694545,13.328135846714105,3.992554010596888,3.0489022066353813,-13.499196088366263,-2.920614339529743,0.7968964914225877,-10.5936085223748,-1.8371141498061434,2.9446481709839283,2.0943146638836954,-0.46644872884139177,9.65644930322711,-17.380394699341416,-1.3214311756213135,0.5276176770933827,-4.529050638188899,-5.372991114588015,0.08602878826420646,-2.071622462434359,-5.063479789056106,16.872405899612062,-14.797259990446637,-4.076745635480165,0.4064707742455336,-5.68402348542369,-1.3349327912797104,-3.235122933213179,-8.223965973782066,-23.309599052758777,17.70522936289825,-5.847499401549308,10.42068119864781,10.52461905152906,-1.42005816924768,-4.986772411619717,4.951299688461134,-9.448996124606847,-0.161102056415188,-5.567160271739143,-3.05002738204891
33.34269967801774,-61.073657296300134,-7.628567714682124,30.928939394478203,3.7763648410059085,-11.334654097293406,-8.547973917102498,7.938432936812097,-15.580099674052509,10.519100910626157,-6.836192147800483,13.177037239334558,3.986449057985707,3.2648533454813258,-13.98012407992604,-2.920614339529743,0.7968964914225877,-11.898942965266077,-1.8393187425017339,2.946049556140777,1.1589997094447142,-0.46608493070054596,9.73168827943646,-18.814946474741987,-1.3214311756213135,0.5276176770933827,-7.788884309960867,-5.3939815116106375,0.09896718582365871,-3.7698287838881157,-5.062919823080818,16.888916977623875,-16.429801834758486,-4.077361952801976,0.40840930784520496,-8.004590789390615,-1.3304275295239385,-3.2420670862467897,-9.137495414765647,-23.309599052758777,17.70522936289825,-5.847499401549308,10.381171948930021,10.334934863317274,-3.4469493223790373,-4.984442358371455,4.9826531965083625,-11.94446505085683,-0.15722830762713613,-5.569733144159348,-4.029967996270772
33.51233657004082,-61.073590074250895,-8.481906910806268,30.96203329338242,4.143412008267485,-11.133943979351228,-8.558299952641658,7.94227038958926,-15.238301202214478,10.588534869970884,-6.839632038946204,14.388724810860541,4.002488750033901,3.1712210181416496,-13.95750107710209,-2.920614339529743,0.7968964914225877,-9.935531149550354,-1.843787152277222,2.9476802713218526,2.3103256048834044,-0.466240975389103,9.577609707886747,-18.236322389302806,-1.3214311756213135,0.5276176770933827,-6.951733446466726,-5.37714152042935,0.09064696070811862,-3.12765430840747,-5.0634753580736,16.87178144016011,-16.086136415606035,-4.075046275608996,0.40424435691849686,-7.1508230279212945,-1.32275100245251,-3.2482237761387087,-8.803317546247582,-23.309599052758777,17.70522936289825,-5.847499401549308,10.376942262938703,10.454167612324095,-2.410790652686096,-4.9841102463940965,4.981205255170893,-11.18598073728316,-0.14934892143216016,-5.5730812196825115,-3.5969941235998846
33.55885155252411,-61.14188414324401,-8.32343768350944,30.964791021737003,4.328662663545412,-11.083484667951772,-8.524898168669148,7.929689666322003,-15.800081625685955,10.522318674327629,-6.828884964545657,13.859986426768295,4.015903822356374,3.1880681305984804,-14.762330795423317,-2.920614339529743,0.7968964914225877,-12.110498766616217,-1.8439538482045905,2.9478626923699487,1.0128966525927545,-0.4662749123582755,9.58684843787247,-18.39304443999142,-1.3214311756213135,0.5276176770933827,-6.927159135078522,-5.393319486987945,0.0931643839898314,-3.479442483021014,-5.064951590612406,16.635531544082063,-16.561739671879828,-4.077724196312508,0.40842276961897434,-7.893136351676247,-1.3395814716371857,-3.239293410854424,-9.660317297866664,-23.309599052758777,17.70522936289825,-5.847499401549308,10.355464372005775,9.986556266264177,-3.946549817823719,-4.985150989123311,4.976540229840911,-11.262582569445225,-0.132618825072781,-5.582140414999206,-3.5660972615168856
33.477960489053004,-61.09691547968978,-8.33734172345689,31.053493005225047,5.3771466234120116,-10.53306706008137,-8.518683277020695,7.934487185932279,-16.295705037482076,10.55836793811051,-6.807487195060998,13.35826523345581,3.993265617672524,3.5781630971096483,-13.719213880678986,-2.920614339529743,0.7968964914225877,-11.0247071718305,-1.84263634501972,2.946801257399425,1.7234055827657144,-0.46601631790116554,9.596713416181817,-18.828510999119707,-1.3214311756213135,0.5276176770933827,-7.473180955223484,-5.378024795774569,0.09688535961851241,-3.745674276922747,-5.064083969266169,16.79209989282979,-16.804226163200713,-4.0752181564815615,0.4061549633132757,-8.928988154947625,-1.3321830682010356,-3.239794654910556,-9.248917659402714,-23.309599052758777,17.70522936289825,-5.847499401549308,10.330537597094184,9.88116730285702,-4.644042876463756,-5.000814240370096,5.012196228064628,-12.21635701783141,-0.1262392452212014,-5.584961305307867,-3.304028602761747
33.37461789491061,-61.072490016340424,-7.872080550179783,30.980637585842516,4.1479439708219035,-11.09356225142722,-8.617597663589422,7.953371639453357,-15.034594620343885,10.595911966398093,-6.804950344167239,14.734323982356672,4.043010455373111,3.648489416943625,-16.05730879620353,-2.920614339529743,0.7968964914225877,-11.36624925216671,-1.8397367272459166,2.9469410577428783,0.1840686803667282,-0.46562546041349434,9.619087228977927,-20.181127683576534,-1.3214311756213135,0.5276176770933827,-8.74477507679645,-5.3881311060334545,0.10537029846009893,-4.381649326276358,-5.06656426499754,16.469611319430687,-17.369173824280928,-4.074408471439679,0.40662275218838834,-8.990449864311902,-1.3557379044380211,-3.229106464877976,-10.549647543686426,-23.309599052758777,17.70522936289825,-5.847499401549308,10.31373765666917,9.420777073444407,-4.403585616373364,-4.981550865007052,5.0090637731601255,-11.762397315565135,-0.1394142503610541,-5.577622163418104,-3.8336722604124827
33.37283871894735,-61.08383878441925,-7.722572947661911,30.96042367608702,4.047966479123644,-11.18876319449478,-8.593562359225134,7.946576018723956,-14.943971049160648,10.526713499940184,-6.837055809645298,13.825007475663705,4.030891281512189,3.2542595293461707,-15.220178608465233,-2.920614339529743,0.7968964914225877,-10.308035330103806,-1.839939799283017,2.946946974945943,0.8514827365275011,-0.46622169825149984,9.622183129158252,-19.189376555373922,-1.3214311756213135,0.5276176770933827,-7.3715198387206335,-5.387813343057869,0.1053777494167979,-3.883302625883932,-5.065526639970784,16.587046082164473,-16.716142048985695,-4.07177816864849,0.40101654945044685,-8.087347239838632,-1.3421397964564141,-3.2429667428851077,-10.012714102137572,-23.309599052758777,17.70522936289825,-5.847499401549308,10.33088915536412,9.639164187290806,-5.053190378924793,-5.000114735074781,5.009254423276627,-12.66885691560965,-0.14767036860676014,-5.574978828297703,-4.135650360521083
33.22540633529303,-61.07500970514043,-7.331037885552683,30.949010075340766,3.93852647186237,-11.244837989947923,-8.560517607843229,7.9429861173708725,-15.652354136028588,10.573480222573885,-6.829272356581864,13.67183592133602,4.033565723845982,3.290261525210543,-14.96569144767999,-2.920614339529743,0.7968964914225877,-10.807634406407303,-1.8372974883491524,2.946863203739588,0.598729598731115,-0.46627779184474016,9.453732698474589,-18.425854527487438,-1.3214311756213135,0.5276176770933827,-6.416635178127105,-5.367230363551404,0.08908400350017054,-3.456176632859279,-5.066718748331688,16.532954216448108,-15.70466227956044,-4.076815492012397,0.4089171690895665,-7.2837265285559845,-1.3467787430564726,-3.2345784661186485,-9.296290809383109,-23.309599052758777,17.70522936289825,-5.847499401549308,10.332553308004622,9.956502634027023,-3.645446013270803,-5.009398330349001,5.0134057895049855,-11.691818880379167,-0.1565588608263504,-5.57176373259256,-4.004396525492181
33.53159961026979,-61.122291521387126,-8.671544999503226,30.978373645756005,4.24294551231782,-11.07678218153384,-8.56246078566355,7.938396877187264,-15.633009305166627,10.557846716453104,-6.846456165187921,13.930969957261746,4.054880903748469,3.39589053791281,-16.6500942604287,-2.920614339529743,0.7968964914225877,-12.871711927079353,-1.8347075711401306,2.945897271196719,-0.13583780280881186,-0.4659131811869303,9.498970119111087,-20.15049439275171,-1.3214311756213135,0.5276176770933827,-8.849431343581688,-5.395291416240734,0.10611449318767735,-4.857422135467367,-5.067067910543151,16.38353845343,-17.36186944621951,-4.081972079801951,0.4183349626882882,-9.549765906447657,-1.3712758459021774,-3.228255648386623,-11.409592979148348,-23.309599052758777,17.70522936289825,-5.847499401549308,10.301663566510356,9.468726987382773,-4.930522477830543,-5.02001387825046,5.025723449351956,-13.115627326018998,-0.14455549399405632,-5.578188401369297,-4.446821241164496
33.399153650161246,-61.10676060975776,-8.004009077125673,30.933785798687424,3.9672856724044223,-11.279102721152498,-8.521378889211197,7.9303162205364295,-16.248299874207767,10.446789986157642,-6.8481662558489935,11.774118898403923,4.01687537609442,3.294951936236198,-14.690619541248735,-2.920614339529743,0.7968964914225877,-12.253328133580315,-1.8263782541576576,2.9424429926016256,0.2138892956169851,-0.46639775203345196,9.508936624129293,-18.122741498660126,-1.3214311756213135,0.5276176770933827,-6.236291249774538,-5.386356986177162,0.09342003054371678,-3.1509738768178117,-5.068317565854533,16.440243151167902,-15.622115523786597,-4.082268182929606,0.41669306146514734,-7.881279301000003,-1.3547018162854678,-3.227963390906545,-9.367619822055959,-23.309599052758777,17.70522936289825,-5.847499401549308,10.346569857581809,9.780633239083812,-3.4811971514008793,-5.016889720408245,5.0000919649155335,-11.52089641204459,-0.15535920079217458,-5.573080204350315,-3.787745332688674
33.22073924788595,-61.06085062865351,-7.6321654428608925,30.97312357499097,4.262917472972644,-11.080680830893728,-8.462952320937005,7.923080908133271,-17.436743711519213,10.515579215284406,-6.820749285844893,12.72738588679383,4.029935777793727,3.5633569820689934,-15.7241304485166,-2.920614339529743,0.7968964914225877,-13.858418353522787,-1.829606155749441,2.944070566080364,0.0905326278386216,-0.4659296547957453,9.47070160846444,-19.249308604812505,-1.3214311756213135,0.5276176770933827,-8.147084264108642,-5.3952105073136405,0.1006755779894673,-4.5037143284733485,-5.065917403747262,16.621663091446266,-17.015470826132194,-4.0789166348722,0.41239060443465037,-9.537749121445795,-1.3429024500641438,-3.231155618019604,-9.785861195065433,-23.309599052758777,17.70522936289825,-5.847499401549308,10.350850947338788,10.220461950399196,-2.8011447205340243,-4.987541742788909,4.995436173292085,-12.284093122515252,-0.13689049108800266,-5.579545098905444,-4.0077801466943885
33.291793979279134,-61.062412786822,-7.597809626874783,30.98682096362056,4.4737138142562145,-10.97888336915902,-8.513812128386192,7.933173736555734,-16.46373327855371,10.547260083353665,-6.806012204017836,13.30394800431426,4.020299060839716,3.339912873162899,-15.1224849723671,-2.920614339529743,0.7968964914225877,-13.796231530703745,-1.835126958443829,2.944075448009904,0.4116043761515744,-0.4658637971884497,9.528196031783537,-19.03177487480452,-1.3214311756213135,0.5276176770933827,-6.5802935080714775,-5.40404343641075,0.10243071911748902,-3.5590218467885943,-5.063795138474729,16.723576599088993,-16.86470984373333,-4.082826243666401,0.4171885309999334,-8.626763880149031,-1.359182212764337,-3.221795037185808,-9.172033752029574,-23.309599052758777,17.70522936289825,-5.847499401549308,10.35898227828678,10.162609659050874,-2.649239126897994,-4.9912013728936095,4.985513036013746,-10.753498771621405,-0.13263141679653823,-5.581983087083286,-3.1262152127425225
33.2489227636483,-61.02988997361684,-7.451926037943888,30.983617196363813,4.233477636848956,-11.035528921748025,-8.473539152447955,7.927511814896709,-16.93954110201991,10.483161265028961,-6.81533389470984,12.529705285288328,4.0429002654638,3.2153170866907534,-15.85255642670029,-2.920614339529743,0.7968964914225877,-12.572204091084231,-1.8258751473208625,2.94237227656448,-0.5465833555385817,-0.46581748141975127,9.402395228520707,-19.526194372277132,-1.3214311756213135,0.5276176770933827,-6.36429864044565,-5.398641164457143,0.10459040659931879,-3.727980685250495,-5.067094611626369,16.476483542098883,-16.81838551864599,-4.075947152288201,0.4068703902986591,-8.314180062458313,-1.3618321865094174,-3.2346016594127622,-10.045492558683023,-23.309599052758777,17.70522936289825,-5.847499401549308,10.344218503792362,10.272256596846649,-2.4050277385073766,-5.021007906171154,5.00882685866707,-13.173171216256472,-0.12971967548386287,-5.584457128791799,-4.092023337072819
33.515364114372105,-61.0915327544596,-8.398167299644609,30.967840056059103,4.089806268233946,-11.10099164803307,-8.489414460237109,7.926698963041605,-17.140189077210554,10.451681417341405,-6.817527942785166,12.96520597281713,4.045972772489774,3.7499744175509027,-16.38514256572441,-2.920614339529743,0.7968964914225877,-12.306485116901829,-1.8312449323480011,2.9433683910339217,-0.2716612281618467,-0.4654393871234842,9.735450950650616,-21.39711021071291,-1.3214311756213135,0.5276176770933827,-6.884552978198709,-5.4037174382388224,0.11050642178284231,-4.169389241296759,-5.06483054327397,16.528245973142653,-18.578687060812513,-4.077256627606108,0.41178615312239525,-9.88168742311272,-1.3783481258573715,-3.2163792085721603,-10.874881775490477,-23.309599052758777,17.70522936289825,-5.847499401549308,10.3179499224807,9.798062389231154,-4.608930829758286,-5.029195813349135,5.03954647610405,-15.821908887840708,-0.13632290752152065,-5.5810036713201585,-4.853085909506753
33.64588921075355,-61.12929122343472,-8.768824120516026,30.915441697241842,3.3112410456906876,-11.453474337136715,-8.396607919359615,7.903208732131636,-18.281827321110168,10.40369665857934,-6.824315516155241,11.799518165513545,4.050628633271084,3.4432623902065447,-16.071990809096775,-2.920614339529743,0.7968964914225877,-11.146605915657585,-1.829698891893408,2.9430975332362928,-0.11912539955323176,-0.4651510149554284,9.617910597259089,-20.77127915662988,-1.3214311756213135,0.5276176770933827,-5.550717064628419,-5.407162333289764,0.1080500780855499,-3.5915923140376496,-5.0642496272721855,16.5715208936331,-18.312808702975808,-4.078705537687786,0.4123398378333595,-8.02505111660573,-1.3777887722493298,-3.2241709113265085,-9.854053497018553,-23.309599052758777,17.70522936289825,-5.847499401549308,10.34220238608562,10.202652260336524,-3.0074934725454305,-5.025621529200739,5.0100651846126185,-13.595164779420715,-0.1321889103215872,-5.582517649232734,-3.895812313186781
33.799242477938805,-61.152904355835254,-9.816628367970278,31.01331485174327,4.428384064485177,-10.874002210562573,-8.389221800893244,7.90112040292291,-18.965443713834564,10.508378178933961,-6.818095759437945,12.872915128364967,4.06595073309507,3.5408034433564,-17.118303193764298,-2.920614339529743,0.7968964914225877,-12.663796533982044,-1.8317053968522066,2.9441169585207474,0.5222622411128839,-0.46486956414292746,9.429387580434394,-21.192396940185162,-1.3214311756213135,0.5276176770933827,-5.0744679972031115,-5.419862986971856,0.11807752128480797,-3.202995803079709,-5.064485887012633,16.493429438507867,-18.76659126594057,-4.093181618148546,0.43430518091663256,-9.045993858489894,-1.3955173171760822,-3.2140572245786236,-10.18257954040161,-23.309599052758777,17.70522936289825,-5.847499401549308,10.311007518666642,10.036168090827234,-1.9320312328205524,-5.033664524403702,5.0053315725837235,-12.888171883992602,-0.11677486111836793,-5.590668770311902,-3.1647709996651354
33.69979993733235,-61.14181452931044,-9.02540471208909,30.994197326799597,4.259880770103919,-10.973636655647923,-8.412930806017561,7.9071668323566255,-18.39859961743915,10.549099027558967,-6.811447268888676,13.297358844015179,4.082239849623732,3.282077073498903,-17.669961514773977,-2.920614339529743,0.7968964914225877,-12.061404665758083,-1.8369664448932213,2.9468800610983776,0.4864002197085604,-0.4649237587942546,9.591395648694359,-21.511952009524162,-1.3214311756213135,0.5276176770933827,-6.066758287654757,-5.39929722697938,0.10018121246829903,-3.23620202685467,-5.063284525509294,16.555916574080946,-18.91172381340693,-4.084198467430978,0.4191069614829862,-7.7358067997079765,-1.4019945710788728,-3.2197334364554084,-9.714112677346218,-23.309599052758777,17.70522936289825,-5.847499401549308,10.320722403358872,10.087646705672832,-3.098465155993429,-5.053650170764257,5.005442181082939,-12.41427883858416,-0.11926082696795037,-5.589368344901702,-2.7175537181772107
33.69644495973391,-61.12592308048517,-9.51762153118288,30.97555687689256,3.9602653029150967,-11.139260778792725,-8.45173459314476,7.91379498728274,-17.552918901864555,10.558136329771251,-6.805829320309598,14.164395724741642,4.080166948477514,3.2199038460774894,-17.996882933672733,-2.920614339529743,0.7968964914225877,-14.50947245133101,-1.8296768973827553,2.942506733073418,-0.249188888056743,-0.46523714635711294,9.502802652387517,-21.639318285276534,-1.3214311756213135,0.5276176770933827,-4.378799680661224,-5.411516909792153,0.10795058893862375,-3.09258178892164,-5.061919303375114,16.53357596939211,-18.075977135561416,-4.091405367074597,0.43034464960333646,-7.7838239991754,-1.4094530848995857,-3.209056341287998,-11.14381139080719,-23.309599052758777,17.70522936289825,-5.847499401549308,10.313894622623536,9.867126620842894,-2.8109913013082934,-5.045450396331575,5.010084314722933,-12.401893163504532,-0.10633135985291603,-5.595926208180831,-3.3148289391828207
33.43412077479267,-61.07761963419679,-8.26269741038696,30.971033685396236,3.8975475226303717,-11.16068906651152,-8.387749508562628,7.905189283313116,-18.610220176248117,10.504339427079861,-6.822657039809483,12.406856948576277,4.073654568906314,3.039276821902762,-17.622856597015073,-2.920614339529743,0.7968964914225877,-14.07453773071719,-1.8304061216149952,2.943753391766077,-1.1111770547512148,-0.46558569772070707,9.348738914322453,-21.547815713659382,-1.3214311756213135,0.5276176770933827,-5.2841153035476225,-5.373163294726963,0.08420409007439017,-3.334802982271805,-5.064397934396685,16.39477637567072,-17.89805765763539,-4.083696640831097,0.41660413039147576,-7.770651250292119,-1.4176514302375778,-3.2149496554758956,-11.082897686728629,-23.309599052758777,17.70522936289825,-5.847499401549308,10.320295058738436,10.148228382257155,-2.3872925237522917,-5.068635610361332,5.017796932176595,-13.544105974170941,-0.1084181106403278,-5.59697408954646,-3.71436734435958
33.48769335420588,-61.0751989278419,-9.00761056608188,30.993326522920746,4.184006664701387,-11.021499338371811,-8.375080675070473,7.904640969913824,-18.73499338705763,10.501325515858966,-6.820220353570902,12.49117270228727,4.0704415613790195,3.251876300147496,-17.650778803138042,-2.920614339529743,0.7968964914225877,-16.07344921080353,-1.8252679332602553,2.9409120366700523,-1.8904749610093408,-0.4652679851737824,9.396229473426395,-21.33448826128977,-1.3214311756213135,0.5276176770933827,-6.3716868405747,-5.409919144224844,0.1079125896575075,-4.423513384564279,-5.065055984608835,16.413246482757504,-17.72208419052293,-4.081697452927732,0.4165270822954318,-10.2736232041777,-1.4049985583991718,-3.2150009627357554,-12.252770449922966,-23.309599052758777,17.70522936289825,-5.847499401549308,10.304403481630407,9.90881604100375,-2.2150129514580126,-5.072569090038854,5.039462191047499,-14.864122629462889,-0.09480563784036272,-5.603541217271534,-4.356077598195792
33.4623189092605,-61.06927752018823,-8.45018772420493,31.017359068984817,4.605925950166609,-10.825340508920261,-8.389210105911237,7.908188733941152,-18.337757841634726,10.513867782081686,-6.819808737559041,13.300966783292171,4.066201089527075,3.1439773217761067,-16.80975908517224,-2.920614339529743,0.7968964914225877,-11.838641234922118,-1.8309033746694556,2.9432113553244448,-0.6032358518317587,-0.4653081644829167,9.393111083702477,-21.54810292480832,-1.3214311756213135,0.5276176770933827,-2.950495571863936,-5.3828455163448545,0.09260640674635279,-2.808928987875543,-5.065632816865137,16.264955210007276,-17.4928439506389,-4.08367131444273,0.4199620297944137,-6.7594673085480395,-1.4223606824085977,-3.2037238122504466,-11.206424325408744,-23.309599052758777,17.70522936289825,-5.847499401549308,10.290157890442968,9.713434036057683,-2.6318722028956465,-5.099981533686268,5.059731341146478,-15.589115213055054,-0.10533028540646583,-5.599025104116545,-4.312027815001052
33.76075234845877,-61.125674097302436,-9.835483564181354,30.994375240832508,4.136910545746245,-11.012861983423315,-8.355866507717066,7.894757138480619,-18.755270165548932,10.434757649342751,-6.81131256717087,12.512144164356082,4.087994600353185,3.544764002431929,-18.051576745543066,-2.920614339529743,0.7968964914225877,-17.88979860658324,-1.8266249252667608,2.9407037471810265,-1.6904764819149758,-0.4649915648310404,9.462625872175005,-22.0315414558613,-1.3214311756213135,0.5276176770933827,-7.936706514509222,-5.453525755499385,0.1298596808393258,-5.0394638257590145,-5.0634235026389955,16.493374984372046,-18.476072200311986,-4.083439624399886,0.4191658306109346,-11.112452147387621,-1.4109509404897886,-3.22622073092041,-12.718105333977746,-23.309599052758777,17.70522936289825,-5.847499401549308,10.29881989382703,10.106106593383549,-2.22544620124666,-5.046931326695267,5.023054861434879,-14.685029754375444,-0.06630627354979607,-5.61628782262059,-3.952480390883302
34.06252963237103,-61.13268976328285,-11.053622598290351,31.028076086117963,4.587185180202343,-10.809452524686403,-8.367912010236516,7.895796182712083,-18.439470178549108,10.443084804221394,-6.827328729764745,13.365143311570023,4.090737522017231,3.7039109420863303,-17.583189893884793,-2.920614339529743,0.7968964914225877,-15.726745690300712,-1.813650467173329,2.932721902734371,-1.0117681770822617,-0.4647202382561213,9.440784581468368,-21.78212613754718,-1.3214311756213135,0.5276176770933827,-4.511908596120755,-5.5185763523341596,0.17979063620857266,-3.9694731163339068,-5.064839472731553,16.31547672442784,-18.650974996357725,-4.09085595005466,0.4338861889632609,-10.573847261661609,-1.435249827840539,-3.202227858331413,-12.708162855187798,-23.309599052758777,17.70522936289825,-5.847499401549308,10.250829026161759,9.144544949918966,-2.3388890076116606,-5.0678071465192795,5.053548420102884,-14.874026659231943,-0.06046505169777994,-5.6190461483140774,-3.999012809444695
33.756962436795845,-61.09047446371681,-9.931531423041957,31.01211888896652,4.374213686731478,-10.884870628531477,-8.399009229421846,7.907733914921205,-17.89231006344993,10.502172440223225,-6.8292028820480155,12.696762986292756,4.077809379478644,3.504666805607035,-17.511408222304297,-2.920614339529743,0.7968964914225877,-14.349648388786287,-1.8295785575882781,2.942693167529218,-0.6886987196508461,-0.46467136754739424,9.36841901478212,-21.63895469495347,-1.3214311756213135,0.5276176770933827,-5.722796883371899,-5.421471338239451,0.11162965263946562,-3.841122274677149,-5.06560343241745,16.284384051455213,-18.780727092686487,-4.086344859084219,0.42456845460021464,-10.229700677114227,-1.4344059143648007,-3.2078420386940736,-12.06566750699434,-23.309599052758777,17.70522936289825,-5.847499401549308,10.26625069965104,9.713808154471982,-2.840280343740284,-5.079854354755171,5.056505463335571,-15.312338291970264,-0.09131945276677023,-5.605439913504976,-4.165488814998554
33.88060480152755,-61.137140817721836,-10.158906003639107,31.00422945708743,4.196031379374116,-10.964123136274475,-8.377755982879487,7.895820821372953,-18.274411823259197,10.458482631414746,-6.822988270987518,13.060436701467882,4.092318973429537,3.673866172179739,-17.69219958449429,-2.920614339529743,0.7968964914225877,-16.185161538346787,-1.8218577885923506,2.9378196606264155,-1.3673424048784835,-0.464675567086207,9.360894863311767,-22.172636315541304,-1.3214311756213135,0.5276176770933827,-5.2246213749455634,-5.473456352820596,0.1497685643589149,-4.056004400649025,-5.064096246638131,16.27488567416747,-18.82577353641079,-4.094832876589613,0.4381283243848175,-10.269869424350965,-1.4418456136622007,-3.2088462744705195,-12.63726738796979,-23.309599052758777,17.70522936289825,-5.847499401549308,10.240207821322008,9.453590555592774,-2.834861993185914,-5.071479772974229,5.062109000553151,-14.682913652765551,-0.07102416523765043,-5.615187113910193,-4.180538131015249
33.6103786722515,-61.07222301115512,-8.83528365491673,30.997356254145387,4.3867268991195365,-10.922820593239477,-8.422281450391557,7.912727751749555,-17.430172588674353,10.44125329674061,-6.820519146741676,12.826995752121153,4.073620403668795,3.5312626654044994,-16.91062246299219,-2.920614339529743,0.7968964914225877,-12.916781287094327,-1.829329207255388,2.942479757534124,-0.44542510572367533,-0.4650113955389831,9.47608075695912,-21.282968565182966,-1.3214311756213135,0.5276176770933827,-2.9690091928515265,-5.4004452783258525,0.09710440655115543,-2.55097020038683,-5.065487250375519,16.304503428449866,-18.174682703683867,-4.082925277719633,0.4189042808794265,-8.619169293366934,-1.434549665882488,-3.2094191656095177,-11.30929062476315,-23.309599052758777,17.70522936289825,-5.847499401549308,10.264949693105793,9.751873973956412,-3.685080599453803,-5.077637175853868,5.07218804120921,-16.727852633075464,-0.1065352041620512,-5.597855404013217,-4.7970734893431395
33.70483387677444,-61.08754503449135,-9.443854850424033,30.979530940132285,3.9881121882769492,-11.108912800538695,-8.404761090916464,7.907160156042319,-17.502549440715146,10.442687130339902,-6.823156209284791,12.350529817994236,4.087978332063201,3.4032789519923936,-17.874936971763518,-2.920614339529743,0.7968964914225877,-16.39140548887595,-1.8214213084528372,2.9388956130190547,-1.5475599546110672,-0.4651059996742219,9.360763617559687,-21.3810953485512,-1.3214311756213135,0.5276176770933827,-5.706213923758522,-5.422057427449297,0.10352413350415979,-4.041813491307668,-5.0645203270421035,16.36740118709776,-18.26319018576571,-4.0860287665983055,0.42113772444737285,-10.194457545238304,-1.4295134385100736,-3.2230132830631324,-12.231464839975699,-23.309599052758777,17.70522936289825,-5.847499401549308,10.294525155751398,9.919238925838517,-2.42340796457464,-5.062734397693553,5.0263878806606055,-14.832741376883874,-0.08632120827708673,-5.607138989342259,-4.278171785365107
33.54663089977017,-61.08341086991339,-8.55238188851651,30.982603112053326,4.154924566459405,-11.022472541885026,-8.413973145515138,7.909622223579136,-17.867491258780255,10.460467742208936,-6.8269324620136596,12.211977237088833,4.084708675180582,3.315632129652477,-17.631831321194646,-2.920614339529743,0.7968964914225877,-13.737276563852273,-1.829212251936758,2.9423279938089872,-0.607853063744864,-0.4651733626245613,9.524471563705935,-21.513077503407885,-1.3214311756213135,0.5276176770933827,-5.274101390742089,-5.399179358505045,0.09483538760465915,-3.424841138777863,-5.063537039084123,16.570087973539167,-18.757515868084116,-4.084498947264161,0.4195068483014852,-9.111563919389532,-1.4152575778651122,-3.215110812256674,-10.589053515942286,-23.309599052758777,17.70522936289825,-5.847499401549308,10.324023900679428,10.384165810423658,-3.6075950637667074,-5.069813077575764,5.034097725450571,-15.323349408279924,-0.1289316174918715,-5.586690969810034,-4.238134869198342
33.45130018353711,-61.066670891982625,-8.27152993063368,30.97987737552529,4.1807132628544466,-11.058637221564332,-8.453511943243992,7.920440867460802,-17.3541828789736,10.494579128260167,-6.808195867936286,12.92758405111953,4.057446351887464,3.3660101445264523,-16.97084498813061,-2.920614339529743,0.7968964914225877,-13.319266374658719,-1.8263538003692021,2.941739204377143,-0.4399330044345042,-0.4653818411273988,9.61849873372432,-21.30128207928428,-1.3214311756213135,0.5276176770933827,-5.565075665689275,-5.411424078254177,0.09886562833727691,-3.284100219706378,-5.064603176143873,16.457902147404464,-18.559204106246465,-4.084412043007061,0.41921917906460915,-9.022279604167718,-1.4048473832365458,-3.217813857494075,-10.523758236362113,-23.309599052758777,17.70522936289825,-5.847499401549308,10.330543997792748,10.00575004174782,-3.3792838279771935,-5.079550570244684,5.035217919547469,-15.123124938572012,-0.12655864097018538,-5.588576547946637,-4.071241389304937
33.45065343705664,-61.08239603364077,-8.146652235456887,30.955689153069166,3.767571333493641,-11.244899459784742,-8.407763428226867,7.908400339372658,-18.30182432691838,10.493818894145326,-6.823162384115142,12.316247179819834,4.071859587221571,3.0662118377280505,-17.498403653148006,-2.920614339529743,0.7968964914225877,-13.279461042188352,-1.8273421172841247,2.9421838952455204,-0.6631550397805253,-0.4652751390058624,9.505604950329417,-21.55486233636999,-1.3214311756213135,0.5276176770933827,-5.606629154385288,-5.41161692677208,0.10314855725743943,-3.2491979948985517,-5.063613708797163,16.54618920366501,-18.594696492242313,-4.0881280622823954,0.42430061252692514,-8.171914398661027,-1.407320445676472,-3.2146631944276445,-10.139015075416232,-23.309599052758777,17.70522936289825,-5.847499401549308,10.342176228240472,10.178912192317958,-2.8996040196782005,-5.088475167260662,5.026813995726055,-13.990234471774045,-0.13230718409586278,-5.585900683371845,-3.5021813113773472
33.35817922241759,-61.077369490912986,-7.949102323365953,30.966557773656035,3.89152262202497,-11.16358911059857,-8.39541492688873,7.907807435635517,-18.019615001265088,10.500794938882688,-6.834430322840721,12.679496880443423,4.061842392394232,3.208562583424835,-16.83050180340483,-2.920614339529743,0.7968964914225877,-12.643377407634073,-1.8322041489137662,2.94421105200733,-0.9141977395969043,-0.4651216055241263,9.512052909630786,-21.627465766694087,-1.3214311756213135,0.5276176770933827,-5.625229836989629,-5.3953051424930205,0.09418423712632618,-3.571464732989382,-5.064699018566193,16.43217570224657,-18.07786421004277,-4.084086883472454,0.4199055692122726,-7.687867003385588,-1.3965827706071092,-3.214647074250364,-10.260311797956351,-23.309599052758777,17.70522936289825,-5.847499401549308,10.333118050220827,10.077807585188893,-3.0383311281204204,-5.083412347175749,5.039424176336259,-14.310426388343584,-0.13944943490965678,-5.5827181131568535,-4.062567776111354
33.34962361729762,-61.05070482398829,-7.804822483844286,30.99371094287967,4.296370500745868,-10.98127744194336,-8.421591831879782,7.915871879056018,-17.718457791212074,10.49778065912676,-6.823516678923675,12.72141196429593,4.069334088704276,3.3510507510548018,-16.697943639784587,-2.920614339529743,0.7968964914225877,-12.535408916065279,-1.8311266311943641,2.9432089881845847,-0.3566010728529623,-0.46507687565964373,9.460817354008022,-21.058914944725174,-1.3214311756213135,0.5276176770933827,-6.080920788482928,-5.403564778036875,0.10288434623468351,-3.5996803486894287,-5.066351329800236,16.388950399914677,-17.84529198612396,-4.081362821230217,0.4164910158546761,-8.09284168116271,-1.3969800791490237,-3.2206835565524092,-10.17307839733105,-23.309599052758777,17.70522936289825,-5.847499401549308,10.310848342209995,10.014335551717002,-3.1855712601431883,-5.104700293450969,5.066725543445071,-15.390165151071399,-0.13226125354756518,-5.587021584783924,-4.332405343666165
33.49716893352735,-61.07511147884322,-8.41974142252818,30.994255344382264,4.414316010800862,-10.959435539310638,-8.446008008464357,7.915910375381527,-17.31680385222967,10.47310382390313,-6.834938160956977,12.730030862399254,4.062668107967584,3.457634556246213,-17.204166547150642,-2.920614339529743,0.7968964914225877,-13.50779137730234,-1.8239302102868695,2.9415693847495943,-0.9271870211943174,-0.46505925578043755,9.542374866248572,-21.512232244963577,-1.3214311756213135,0.5276176770933827,-7.0795337751661656,-5.410436326441641,0.10298962946485724,-4.318910239576711,-5.066470395387034,16.321123650323116,-18.39308340891222,-4.0838138488446205,0.4204871358772423,-9.239858839958735,-1.3883590382602309,-3.2195699594388594,-11.09677243647866,-23.309599052758777,17.70522936289825,-5.847499401549308,10.295386241939712,9.466603777381021,-4.36177876226246,-5.061499326319428,5.038483892895817,-15.737631313835308,-0.12160725921804144,-5.5906475157467606,-4.822537728987246
33.44232469518944,-61.06791689123015,-7.994390367062129,31.00313162475825,4.444509642302571,-10.907899209308408,-8.420702671490448,7.911444228778615,-17.6214824586626,10.456714947245096,-6.832392780629695,12.800902460022865,4.064019554313855,3.4881427677402033,-17.0195747077765,-2.920614339529743,0.7968964914225877,-13.13435819140788,-1.8329241306408721,2.945236881918355,-0.7823014402615129,-0.465321758605267,9.458264395578931,-21.12139509892272,-1.3214311756213135,0.5276176770933827,-5.9902465237257445,-5.399403151400549,0.09748221984800431,-3.704506477071652,-5.066926700591341,16.252050922656156,-18.34095875492938,-4.080751054916859,0.41448663407021136,-8.999069794392561,-1.3938654657283123,-3.221519897593956,-10.943535264752446,-23.309599052758777,17.70522936289825,-5.847499401549308,10.27965136388459,9.522338636032508,-4.2022581650032365,-5.076126330480838,5.058622849426157,-15.981438260701369,-0.1198721681141608,-5.59189912229148,-4.59956234556658
33.45970021537208,-61.065220780364434,-7.919969859652101,31.001862301824943,4.452193177282189,-10.925838690344156,-8.519395793466801,7.9316669994979065,-15.663370153775231,10.511128710426076,-6.809614221167531,13.861887219736127,4.0500018610920545,3.746629068113864,-16.611625368309515,-2.920614339529743,0.7968964914225877,-13.308573962017007,-1.8323500131649786,2.9451177368503485,-0.2522761469991419,-0.46540436372936256,9.640216944825397,-20.619816496017975,-1.3214311756213135,0.5276176770933827,-6.6800679035174895,-5.409562780331877,0.10381186180405771,-3.8544872458600317,-5.0664275280070745,16.29392025896131,-17.795907601579515,-4.0822160601848045,0.41674442256020205,-8.788493605122067,-1.3694104177214932,-3.223747346643198,-10.673007272833527,-23.309599052758777,17.70522936289825,-5.847499401549308,10.30069711059537,9.332991295480914,-4.722724775554109,-5.05455700100213,5.043183967902237,-14.537884709758826,-0.13876586195684198,-5.582737156559849,-4.762320882974619
33.541469124258875,-61.078435124823216,-8.479811952923221,31.017780519234528,4.679182412887407,-10.838604518213579,-8.518996445116802,7.932234946108,-15.530936073265135,10.574211373141413,-6.800268970218658,14.935856807619436,4.035681904800084,3.9027558946399306,-16.03338617412097,-2.920614339529743,0.7968964914225877,-13.181829647620923,-1.8419194402035766,2.9479509105139767,0.22995842680182577,-0.46526594122175946,9.754280345570574,-20.772503276792904,-1.3214311756213135,0.5276176770933827,-6.767696942427872,-5.418607848839681,0.10843116763575722,-3.872965090198214,-5.065919819655786,16.257766150848315,-17.567607214807303,-4.082691795691298,0.41734685533984683,-8.706925581943459,-1.3689643178608444,-3.2240083293107102,-10.96783810373091,-23.309599052758777,17.70522936289825,-5.847499401549308,10.281458902773077,8.771055648645255,-5.021135261076415,-5.040282283668135,5.040309322764244,-13.933246427434204,-0.1333538436852595,-5.585306321841567,-4.8140816940774585
33.567046768576965,-61.09751350458633,-8.809863697140052,30.995539441165235,4.107319759556573,-11.010417058271534,-8.41164964655763,7.907418995156318,-17.44470022342616,10.487609500857324,-6.821498290602312,13.109337917791057,4.0621613785239,3.56786939987654,-16.68451940091102,-2.920614339529743,0.7968964914225877,-13.38489156788821,-1.8446170384427956,2.948625610280566,-0.7079946823509573,-0.4649899167796346,9.411956245354975,-21.898851546013972,-1.3214311756213135,0.5276176770933827,-5.835915902233015,-5.4012223624130815,0.09962871584696342,-4.002117625214531,-5.0662071855920505,16.12010538153244,-18.38365415879808,-4.086051715681583,0.4227000438355792,-9.48948856703764,-1.4198294780474776,-3.217557508710678,-12.228287001058732,-23.309599052758777,17.70522936289825,-5.847499401549308,10.23319375203017,9.369185714305745,-4.234466610531827,-5.087175669306017,5.0878595553171495,-16.535503201282637,-0.10816401799054431,-5.598990703144056,-5.239813524678553
33.63318300206367,-61.07792119324734,-9.179772478977782,31.01687256678735,4.444337946536857,-10.849618840437236,-8.432088211841597,7.914305210610789,-17.056610486390436,10.507095936242164,-6.823302882622051,13.348629866151496,4.061035621064222,3.636945317133641,-16.493833135247115,-2.920614339529743,0.7968964914225877,-12.124272413785771,-1.8382036259994081,2.945518370220635,-0.41659619618304866,-0.4648705055577668,9.448285603251486,-21.603864345938867,-1.3214311756213135,0.5276176770933827,-5.193257538213391,-5.415826686237365,0.10947095283297897,-3.7096426043885877,-5.066437285750967,16.1304925916829,-18.64535678856279,-4.0858534795447925,0.42374811774591026,-9.891132406547936,-1.4291199439053992,-3.2071102763993555,-12.30470318672181,-23.309599052758777,17.70522936289825,-5.847499401549308,10.234662574971935,9.367868968544542,-4.188446876414526,-5.093286537560761,5.095280424685289,-17.449527373724386,-0.11976110961512598,-5.592959358417153,-5.654912537090101
34.01763749570928,-61.15455514253974,-10.488708698209672,31.016674264524973,4.187206151753532,-10.92973744176319,-8.390610646339276,7.898911534992743,-17.677618048975692,10.502595960306829,-6.81706528929026,13.577294001462727,4.081236650977558,3.8489942081474116,-16.428414134919716,-2.920614339529743,0.7968964914225877,-13.353906995555446,-1.8302512789017467,2.9407321517796703,0.056004676825866184,-0.46471431816084785,9.316276056544082,-21.64863646342346,-1.3214311756213135,0.5276176770933827,-5.33362083949671,-5.465975074608715,0.14532673190358497,-3.4891912261337072,-5.065001491024696,16.217459312309806,-18.81260529425871,-4.098193187098175,0.4418714869045593,-9.643237780096975,-1.4428314557886517,-3.2093113949340637,-11.762948762013256,-23.309599052758777,17.70522936289825,-5.847499401549308,10.222639986218237,9.366141067689584,-2.2114811641485677,-5.062878863865796,5.0596996531526335,-13.486283086781892,-0.07927437220970207,-5.610937319300024,-3.6718898995274163
34.009842837828586,-61.14527979596406,-10.747665046269288,30.993982051834195,3.8821760623494437,-11.104968890771111,-8.385322568467894,7.897210628948717,-18.0956466155223,10.446183945909597,-6.8265801370494135,11.334123763317246,4.089651632551767,3.515553856565648,-17.999546505079714,-2.920614339529743,0.7968964914225877,-16.28211063833019,-1.8216980240405107,2.9365372561846557,-1.9192200536085355,-0.46469902074514513,9.363537845594927,-22.311328660727494,-1.3214311756213135,0.5276176770933827,-10.175700431162971,-5.4741642320229555,0.14420212027627,-5.739190309418289,-5.065718748911192,16.21755379163916,-19.529061419210276,-4.099700361028491,0.4433168217600469,-12.830116810119087,-1.4622357745845416,-3.195641125071131,-13.691346512937564,-23.309599052758777,17.70522936289825,-5.847499401549308,10.231114952400393,8.917327089934076,-2.652752282886725,-5.10305334642858,5.059464571680118,-15.361206816572759,-0.0707587065686821,-5.616149077900101,-3.9560508872163176
33.774652881944505,-61.14297209995964,-9.715305658155593,30.974837324475608,3.8266041316251753,-11.155927901962349,-8.419075650781329,7.9055878923806215,-18.199365022648657,10.491662464505572,-6.812684003443464,12.65914585538931,4.087674714421718,3.3790580161491786,-18.106931605134704,-2.920614339529743,0.7968964914225877,-16.07845824540312,-1.8342568855949948,2.9437392005626424,-1.1211328579916433,-0.46488642099274674,9.477100917685876,-21.818447164528912,-1.3214311756213135,0.5276176770933827,-7.12379978067705,-5.4542523082831496,0.13377582362011858,-4.706957994485823,-5.063293699843804,16.437083371270234,-18.870001765726258,-4.0901017124551124,0.42955470208061036,-11.105618154026,-1.435745695091296,-3.207971960360217,-12.805985805390705,-23.309599052758777,17.70522936289825,-5.847499401549308,10.247640749707742,9.566198218516726,-3.3835978370920383,-5.067852907311308,5.049908022594164,-14.676153939944903,-0.0792323156095937,-5.610761300740641,-3.9490312830437695
33.65113087126733,-61.11081793149655,-8.973919787161378,30.96992729948042,3.9628468683370004,-11.176302287881896,-8.41260350334199,7.905958923562701,-17.577754926895018,10.479073057603133,-6.797955976578026,12.548821791005084,4.074601879853387,3.5512473513222176,-17.077404567848276,-2.920614339529743,0.7968964914225877,-14.155801604557736,-1.8299424814882423,2.942946047885101,-1.1385209695270486,-0.46523530265714635,9.480563700655509,-20.313776990310842,-1.3214311756213135,0.5276176770933827,-5.742501192896441,-5.444159659075647,0.12229552485449557,-4.191626034024235,-5.068952666157338,15.974341422105013,-17.17778121834013,-4.086845842937057,0.42434565626907905,-9.554509243583162,-1.4048997830782795,-3.197607004741845,-12.317429715253178,-23.309599052758777,17.70522936289825,-5.847499401549308,10.254440475455388,8.788151005713182,-3.9958897724344364,-5.0683280469872205,5.04726329922819,-14.399018695091778,-0.11337500706065295,-5.595003236710898,-4.923934164274712
33.362838417915306,-61.04708611855016,-8.23637325988865,30.97564795674655,4.099056806045024,-11.111848425679925,-8.444503771493816,7.9157834001730345,-17.268832684774715,10.483797916359542,-6.821769585289389,12.47589975254971,4.069915008114747,3.2343198102277944,-17.116760405993308,-2.920614339529743,0.7968964914225877,-13.498686424564022,-1.8301481348638684,2.9434558762836347,-0.9814570207177091,-0.4656240126141448,9.411794809764777,-20.64341348258978,-1.3214311756213135,0.5276176770933827,-4.581974385196194,-5.416400975324709,0.10989184396991825,-3.6030719886680664,-5.066575531916084,16.204397972017116,-17.59931530895382,-4.083717596303251,0.4188592281295777,-9.269040904468522,-1.4192467208827857,-3.199656657006946,-11.930064768586657,-23.309599052758777,17.70522936289825,-5.847499401549308,10.276848617539066,9.3834310372622,-4.030926879359033,-5.088814425633585,5.0599026952342845,-15.70179269767627,-0.13036985053073336,-5.587625782062388,-5.207738008860824
33.13196197605271,-60.99999986277176,-6.5364644070385545,30.97614409469592,4.23795179433985,-11.07189382734033,-8.449871218331756,7.924998192844647,-16.803617364129686,10.545267160291328,-6.8055375735535835,13.9327374310656,4.050647747974464,3.266831340645777,-15.539425826514442,-2.920614339529743,0.7968964914225877,-10.844892205699423,-1.83781134414143,2.945649801865471,0.34921777988073366,-0.46597440997945333,9.485178343227,-19.272598836245002,-1.3214311756213135,0.5276176770933827,-2.542699543113983,-5.38593381578279,0.09188211809243613,-2.070993676418409,-5.066031743676678,16.28596570856781,-16.16784599267134,-4.079160695043579,0.4089017136313993,-5.7873131940289895,-1.3890047885739736,-3.2239221258376336,-9.448590595433071,-23.309599052758777,17.70522936289825,-5.847499401549308,10.30848404304331,9.541295354714775,-2.2376554144248573,-5.06725859888233,5.020155630644016,-13.40938716125108,-0.14177610626722548,-5.581111384831781,-4.298803422685156
33.40018125599765,-61.060893796149834,-7.5215911724460724,30.960213243027017,4.034402146763469,-11.170882220872013,-8.457830169980054,7.919355999411235,-17.208185388523617,10.500797581133387,-6.823187869412751,13.185752612745835,4.0479448120727195,3.406872355229289,-15.989286437864283,-2.920614339529743,0.7968964914225877,-10.642688114046727,-1.842187392400504,2.9491272431607887,1.2588555387726963,-0.46583780355084353,9.544914945335904,-20.513874067330065,-1.3214311756213135,0.5276176770933827,-5.848924939863963,-5.393244961620143,0.09676281538974241,-3.230262643738346,-5.0651336904576745,16.380938614672786,-17.453432151183506,-4.078005352999944,0.40689204233854753,-6.841172673558084,-1.3788897824372026,-3.2332224741271594,-9.756634494594037,-23.309599052758777,17.70522936289825,-5.847499401549308,10.31426736790095,9.634742969647801,-3.141625952145761,-5.056540162798793,5.009727355193221,-13.716632277979462,-0.12832478827367721,-5.586882735666146,-4.337436216601981
33.38350046234633,-61.073970388940516,-7.9156987023163285,30.996075764129728,4.367650401179876,-10.962559988044537,-8.390500860007862,7.907372489628914,-18.387719441608844,10.529793612791858,-6.827163098520166,13.600061335596088,4.0534732131266935,3.3805370450311356,-16.19175350983737,-2.920614339529743,0.7968964914225877,-10.783359031537262,-1.8394911522999213,2.947424420474852,0.3015672783768739,-0.4655092198491846,9.428389030596824,-20.853176054356815,-1.3214311756213135,0.5276176770933827,-4.7999402758170575,-5.38805768890742,0.10165116251434914,-2.99393982491417,-5.065644136187599,16.276566826321478,-17.507028458897413,-4.081959246131404,0.41553215581777847,-6.7383683133299,-1.4002525216419905,-3.2216450424077547,-10.165124834534792,-23.309599052758777,17.70522936289825,-5.847499401549308,10.281693184327713,9.503986672598554,-2.6378092599358762,-5.073355454536843,5.0455792438142275,-13.773413975597961,-0.11663014339606553,-5.5930991315202,-3.716546940885568
33.44491694864188,-61.092039575519856,-8.182875793863086,30.976416829456582,4.0427375977980455,-11.093405201789643,-8.38034242473356,7.905112654710069,-18.59115542680114,10.535025380900164,-6.81501336037921,13.136891529579435,4.072137984279596,3.5973661675221202,-16.91263097627878,-2.920614339529743,0.7968964914225877,-11.622142835884954,-1.8433625659650703,2.9498677941207365,0.6728642964640095,-0.46511076429211307,9.489495610449067,-21.48148544777586,-1.3214311756213135,0.5276176770933827,-5.8744973904240325,-5.391450737922291,0.09704936363252459,-3.382676682377543,-5.064886188584337,16.338931774678098,-18.388498313449325,-4.086323608498821,0.423992729938061,-8.019625441495446,-1.407455795125296,-3.214938404982207,-10.294637854128656,-23.309599052758777,17.70522936289825,-5.847499401549308,10.292247102426593,9.816280101353659,-2.658160491080425,-5.063729764864279,5.0384200876831375,-14.012939494659324,-0.13044798716619588,-5.586275665549363,-4.2276616704
33.52253415180671,-61.44275130070745,-7.055954210686645,30.885237953262997,4.343798655717358,-11.136450487212969,-9.086802595812633,7.952098053594308,-4.80110908309665,10.52002294155809,-6.785198814985984,18.659893606966723,4.9253839911842,5.510656896520568,-55.58100547687125,-2.920614339529743,0.7968964914225877,-87.99641483346046,-1.1918573164519384,2.6289713189779,-45.241664645060695,-0.45667437533518374,11.64023969484734,-63.03670593086204,-1.3214311756213135,0.5276176770933827,-91.83045971639793,-9.510848342650608,2.492663742796829,-49.800854750506105,-5.006005992579205,15.349542256166963,-66.56857249487028,-4.989295717771672,1.9182330433997805,-103.93621838687919,-4.276461462654584,-1.2905596351225697,-58.68409565289487,-23.309599052758777,17.70522936289825,-5.847499401549308,8.395655729052525,2.206681713755505,-59.24498059991469,-6.877551480768693,7.832334981443124,-104.46057985579327,-1.8749290607511946,-4.79535410104236,-53.40185382730891
32.784285651574734,-61.1032430409474,-6.677947681268683,31.202390237024726,9.01740672063213,-8.786044636778492,-9.183978078475342,8.009533882247679,-2.349885655701854,10.450482135286626,-6.779355456962167,12.23554363993568,4.897560597411142,5.466304572733908,-56.381159444913244,-2.920614339529743,0.7968964914225877,-100.24678041426604,-1.1161426847037221,2.5811058946873926,-56.25241403570025,-0.4570146887434965,11.230035435227732,-62.0437959804233,-1.3214311756213135,0.5276176770933827,-101.47860713391714,-9.444375539741802,2.470280870874392,-59.123049909081374,-5.015934751218452,15.792857696447404,-60.93702304923306,-4.900019816398106,1.7837716373927388,-105.41562322411968,-4.125727756604115,-1.3783357180755769,-62.04576935413483,-23.309599052758777,17.70522936289825,-5.847499401549308,8.550876477575969,3.829126236993045,-55.66363579261891,-6.769358494078332,7.736694930456408,-107.06209770112157,-1.8031872233202537,-4.824616001720435,-59.42074977696416
32.572040834099724,-60.94223837805556,-6.863906001239313,31.322960187413393,10.919021171554485,-7.774861523275213,-9.261755017139247,8.04537818379362,-1.1666086020859048,10.464752694765657,-6.775595948552656,10.782756168258086,4.914457702680053,5.7171845825462055,-60.49333205195765,-2.920614339529743,0.7968964914225877,-111.11837858958921,-1.0309525360314717,2.531123851604215,-64.99897685990287,-0.45702368742641697,11.253774201490305,-62.67816580235913,-1.3214311756213135,0.5276176770933827,-110.83141454833107,-9.73160440517256,2.6665496593040308,-63.898491200954766,-5.016753487335257,15.927791068755543,-63.992135695585915,-4.905332315968296,1.7938739645978452,-110.41613339280974,-4.224838217244994,-1.2964196965092523,-64.95935628706148,-23.309599052758777,17.70522936289825,-5.847499401549308,8.565794459846593,3.957946811254623,-55.805034846018486,-6.800145665362345,7.800706009613448,-107.79860365273987,-1.8768399706921406,-4.785276421382854,-60.232655387644954
31.499807045676093,-60.75628027598199,-1.839569616460338,31.421476982263986,12.583107533151,-6.9605532397956225,-9.44245363448134,8.09339173094198,0.7412638260975513,10.634266031111393,-6.847516825259035,13.451537005555394,4.977167059404602,5.034563755425664,-62.77507359430029,-2.920614339529743,0.7968964914225877,-112.50685258345776,-0.9470338073706447,2.479949171828726,-73.61772446633194,-0.45682481756966004,10.947021065062463,-65.29937502532528,-1.3214311756213135,0.5276176770933827,-115.86189732359836,-10.137234437824468,2.9664305278493215,-66.68902836690175,-5.018781355760337,15.530301587793051,-69.06724314764071,-4.96454874054872,1.8883769481400807,-112.71226914061637,-4.49340677304592,-1.0526818858744935,-66.38472079489486,-23.309599052758777,17.70522936289825,-5.847499401549308,8.35700696786912,2.3627962272444645,-63.06481399095168,-6.955241241453897,8.089498296528964,-109.44120935762749,-2.133880369595244,-4.641837238241071,-61.609826091676865
32.2696055571352,-60.919545911960235,-3.850899455227524,31.38592566372915,12.054259524005742,-7.226939520401198,-9.37269822418589,8.063947822581415,0.5232011562702716,10.37664584481463,-6.782784451952755,11.729608948283403,4.912512171630141,5.374433978411542,-57.47168272225408,-2.920614339529743,0.7968964914225877,-103.94810399797132,-1.0139521936725555,2.5163859915327005,-65.91545132379085,-0.4572257049232542,11.014481493476891,-62.145956860975204,-1.3214311756213135,0.5276176770933827,-105.9500002608908,-9.813819722468255,2.7692638815588495,-62.867619050198684,-5.019859536138765,15.649313071607143,-64.56129994908078,-4.911184559462533,1.808078850194161,-106.45596442904666,-4.27952252801305,-1.1935880465394286,-63.306130578891256,-23.309599052758777,17.70522936289825,-5.847499401549308,8.430944969875831,2.6146359171292755,-60.760646402009996,-6.835235439809944,7.915216042729426,-106.90349622073343,-1.9791992765242303,-4.707906114247679,-60.06117785177604
31.82721483393594,-60.92529894971202,-2.1580442530752713,31.477126400473598,14.225117624510922,-6.266241043447205,-9.384562192509932,8.061641130827054,-0.04875260438911866,10.337214453733843,-6.809224388866014,12.35126314913175,5.009668754996926,5.4552298153985035,-60.5490416329649,-2.920614339529743,0.7968964914225877,-102.68246866954738,-0.9624189038917091,2.496262076494956,-68.38285075537053,-0.4555349917733164,11.103393697260636,-68.97560780424793,-1.3214311756213135,0.5276176770933827,-115.48440866271902,-10.32536027034924,3.1035977514957267,-67.64278061920913,-5.020534073460576,15.267466585867018,-70.79285376724437,-4.981624343552714,1.933394946532085,-111.39268257794365,-4.5046661680322595,-1.031509029417164,-65.83678890728477,-23.309599052758777,17.70522936289825,-5.847499401549308,8.190863652366536,1.1588582132179148,-66.68084322037278,-6.951682851691625,8.214130509700235,-112.41522846649245,-2.174141697454965,-4.611236893047737,-63.645327747265185
31.942282033426824,-61.02122536299137,-2.0921397034271365,31.453260653917976,13.209859543000615,-6.587680073619094,-9.29292490512446,8.038412355504379,-1.1189631392427515,10.24487401960155,-6.783661470728258,8.331745235281105,4.997420837497923,4.6373433494031895,-62.69018564191855,-2.920614339529743,0.7968964914225877,-113.04867873875676,-0.9384923357715982,2.480988308310569,-74.53652734630232,-0.4555713478793989,10.548082785413763,-67.63926592524432,-1.3214311756213135,0.5276176770933827,-113.86998516255849,-10.160082718513571,3.009002926372828,-67.90699368070601,-5.022531743671316,15.301041945537396,-69.89037725791589,-4.965052037341074,1.9049360213933482,-112.65384788412935,-4.519730250338617,-1.0197961676748726,-68.19376167693522,-23.309599052758777,17.70522936289825,-5.847499401549308,8.2745237343665,2.1276377850116406,-66.2532345921827,-6.875147805717166,8.077354975554918,-109.84651054315053,-2.133461238535168,-4.63172733904868,-63.58523292680468
32.52880144120748,-61.12703699543099,-4.004241240355634,31.40388565590198,12.569144375308191,-6.9359191768853075,-9.203726110420051,8.015399802331835,-3.1601630099701197,10.19514299834593,-6.7790209424611785,8.650501976536631,4.955413147857279,4.717776484428967,-58.62276984749044,-2.920614339529743,0.7968964914225877,-102.9446837972609,-0.9895544154672137,2.5039696618608556,-68.9534506836161,-0.4560002498051445,10.573413647536363,-66.81023370880484,-1.3214311756213135,0.5276176770933827,-111.27858471721797,-10.131954459262868,2.9909323219044284,-66.91724391402823,-5.022946828156286,15.211756403888531,-68.37181764627742,-4.962220267425532,1.8959031467327945,-109.08734135549332,-4.496289736151582,-1.0357362549191502,-66.2942237618046,-23.309599052758777,17.70522936289825,-5.847499401549308,8.248494480139247,1.9453552522610353,-65.21504677418253,-6.87208666319866,8.082231508701724,-110.45163190949988,-2.1107938540191737,-4.638937847741579,-63.4394211974917
32.317912354933775,-61.07658692979355,-2.156049506207852,31.386029070784193,12.098822305083617,-7.135462207709638,-9.2201943781023,8.011851229123431,-2.7139444641852464,9.967942630887283,-6.714048640732117,5.758681054695529,4.95051516558511,4.5801426338471005,-58.652422722956175,-2.920614339529743,0.7968964914225877,-106.1593306102307,-0.9870256711998514,2.5019167036671517,-72.82403772829016,-0.45623027151626805,10.507643317898395,-68.90494939429645,-1.3214311756213135,0.5276176770933827,-114.33799531303177,-10.218480059653444,3.0438387865857424,-68.88123679947674,-5.0235274286594676,14.854928437523922,-69.77551821287929,-4.9828026252773565,1.9271577363291246,-111.76875360747913,-4.604815616598687,-0.968968674390285,-69.92925371945884,-23.309599052758777,17.70522936289825,-5.847499401549308,8.17638123405471,0.8983389054378579,-69.17244216085057,-6.945700331956745,8.171254395477801,-113.74285326029283,-2.1582374087043528,-4.615934866369145,-64.59832028510247
32.3085612852251,-61.075904593610026,-2.415018652731705,31.38574233181666,12.354181758041737,-7.000672293341082,-9.261070817284068,8.015445047466603,-2.3873854120089923,9.979385272399222,-6.718516975731092,5.533742835544589,4.960447774694602,4.515336720922379,-58.53191341001056,-2.920614339529743,0.7968964914225877,-104.74382968618961,-0.9657952150856702,2.4895087963068434,-71.44788516664649,-0.4558956284635953,10.551466157020812,-68.93199137104098,-1.3214311756213135,0.5276176770933827,-116.24789249552114,-10.290389183338812,3.0760226863776055,-69.64927057714169,-5.018590911149436,15.285050027645937,-70.08838290844383,-5.001083802638323,1.9550838433529414,-112.30859971849415,-4.600874615480622,-0.94851453877168,-67.75900418171949,-23.309599052758777,17.70522936289825,-5.847499401549308,8.246881100693296,1.844617245675244,-65.65543837493468,-6.921629271341809,8.120477897891563,-110.63468064422091,-2.135443085286127,-4.62379148748282,-63.305233305959234
32.14855839859819,-61.01517895797985,-2.1567082505597437,31.430201304311858,12.760473477115683,-6.786173378231274,-9.294143333188481,8.031198196082038,-0.788464226794023,10.094799766471146,-6.738886609135538,7.021950568557831,4.95183713856314,4.790029793538486,-58.596116752952156,-2.920614339529743,0.7968964914225877,-107.14702222587019,-0.980539873639935,2.5042644635608036,-71.37134031772456,-0.45544106665367073,10.547196212338294,-67.40419131933243,-1.3214311756213135,0.5276176770933827,-114.71266869457136,-10.186695531908478,3.0163565631914953,-68.4161488265653,-5.0246422194581895,15.187515842502483,-69.11398414174153,-4.961626667497089,1.901657120946218,-112.13095908880187,-4.459066755562136,-1.0511125898643914,-67.62156549437611,-23.309599052758777,17.70522936289825,-5.847499401549308,8.246926852354349,1.7842010938524497,-66.25706141660396,-6.907095932037634,8.115467046009893,-111.51534135168599,-2.1283390083807077,-4.6321157147723895,-64.53376316308825
32.38440806528792,-61.09561035172941,-2.483239388176475,31.382628035822147,11.943655484187978,-7.170867283352164,-9.215033298116916,8.005072436479194,-2.162842173606233,9.830968145874161,-6.683047282188811,3.1600938020800386,4.910990438292657,4.7201317426798415,-56.042541858390834,-2.920614339529743,0.7968964914225877,-104.95821294853818,-1.0175119180300802,2.522205749249631,-70.39649648923404,-0.45572119511207576,10.46510702078446,-66.7671669690601,-1.3214311756213135,0.5276176770933827,-116.15835770470638,-10.121040526814332,2.976897757622437,-69.32138035071576,-5.025811615197236,15.205068410670139,-67.53599610532889,-4.940378007728888,1.8642404110956101,-110.70537520611349,-4.388896981007037,-1.0982106589961234,-67.57446064047302,-23.309599052758777,17.70522936289825,-5.847499401549308,8.31100095519357,2.0642653867215195,-64.81821304705548,-6.857806218669075,8.023151569494193,-109.606595003245,-2.057107820403946,-4.661131805037992,-63.75335560539507
32.6433960166075,-61.14882419440651,-3.5857393578506374,31.400555001529845,12.328109163143354,-6.975600430023322,-9.199678581487657,7.999217433063423,-2.8218362854215275,9.883201225642917,-6.697313312750222,4.357314141430541,4.9090566796898285,4.833832262230208,-54.98150543761525,-2.920614339529743,0.7968964914225877,-100.59324484834482,-1.023797448424306,2.522927929504202,-67.54474827622036,-0.4556235261996765,10.549727960273348,-66.80168910176612,-1.3214311756213135,0.5276176770933827,-113.98856588681302,-10.114088507769694,2.967886976127219,-67.91222558988875,-5.022889035562909,15.404027934952362,-68.08408637671668,-4.9476319065096535,1.875579638700243,-109.92713485542356,-4.37530483555506,-1.090935801415607,-65.56944689252335,-23.309599052758777,17.70522936289825,-5.847499401549308,8.322138392268096,2.3482065078740284,-63.232434732960435,-6.847807871179915,8.014482032566256,-107.44587146669681,-2.046511992904131,-4.661602379169473,-62.42292319066327
33.203928656077714,-61.28195212451789,-5.57205615568432,31.35064289529206,11.508818454750386,-7.372735774011315,-9.105990462405103,7.970036605583933,-5.2365222501607835,9.765756516204414,-6.6764462541966,2.6593309177604616,4.874203885419203,4.7750729230961415,-52.761950870323986,-2.920614339529743,0.7968964914225877,-96.1012838174558,-1.0648270593434943,2.5396304171326927,-64.91054753050543,-0.4560102819728153,10.458430394745381,-67.3960670151141,-1.3214311756213135,0.5276176770933827,-113.39144256293181,-10.085211234953574,2.9538442896756525,-67.69949232640802,-5.022246744983931,15.291903318039669,-68.81413227451968,-4.956114464381857,1.8842955183340888,-110.18509869619284,-4.427041050120245,-1.0674475215604784,-66.23620923102072,-23.309599052758777,17.70522936289825,-5.847499401549308,8.264184644387361,1.8799351935211845,-65.26780114130129,-6.869221039223833,8.048311557805619,-109.00486172778113,-2.0582492441693643,-4.6564330774966605,-62.64598471560977
33.03758897857945,-61.25512567999807,-4.691387143052302,31.341434725444707,11.403248869749202,-7.4352783725581855,-9.100937892113881,7.972016477587871,-5.599431215907936,9.77173438880391,-6.673086295282615,3.2258412361870543,4.88595264130204,4.82206506949803,-53.441086302424935,-2.920614339529743,0.7968964914225877,-96.89831025517508,-1.0609743739771904,2.5390070916479894,-66.54153460489741,-0.4561618612706917,10.5377523505903,-68.97589559851903,-1.3214311756213135,0.5276176770933827,-116.15315568567529,-10.18615234505746,3.018857785775049,-69.07536578359773,-5.021812548465079,15.170120079429028,-69.68184160565413,-4.974046513838094,1.9117695425228427,-110.88316267379884,-4.505816542665579,-1.0231586670612938,-67.76534787984994,-23.309599052758777,17.70522936289825,-5.847499401549308,8.191112329298727,1.5538887673910962,-68.46352402194736,-6.929970315473326,8.174089156083104,-113.08341847445051,-2.132210159628158,-4.625744402021372,-64.20670740780517
32.38032585750941,-61.07173786434276,-2.2554784807383985,31.40345070141871,12.323090064732087,-7.00588318126384,-9.224635073682864,8.015383332528524,-2.09751072471672,9.997270811585443,-6.717176652244552,6.046684965958569,4.93613355212683,4.756254742396834,-57.053856351801,-2.920614339529743,0.7968964914225877,-104.88579563491705,-0.990291045746307,2.503717949543122,-71.45898212941636,-0.45608752287372467,10.525815850675238,-67.3949217776811,-1.3214311756213135,0.5276176770933827,-114.27944697603398,-10.117129750272133,2.988247184426598,-68.27527485063567,-5.0252138433415565,15.09269561690189,-68.11653499871373,-4.95549069521779,1.8871370465152428,-110.06955391127805,-4.487712978895746,-1.0315361602611421,-67.82702844423851,-23.309599052758777,17.70522936289825,-5.847499401549308,8.221587249122646,1.5794235747882315,-67.16416287639393,-6.906154255695417,8.117541396953117,-111.90843329515673,-2.1340142108593634,-4.624992055189702,-64.60429721304955
32.662339226687,-61.16638198601831,-3.6047671730741397,31.36913395706958,11.719653046280948,-7.2590903962550835,-9.173799425370357,7.992630670195304,-3.568807896268156,9.869548617805275,-6.688640919957586,3.9225218462303353,4.9332363826900885,4.871104111802016,-57.11327863143821,-2.920614339529743,0.7968964914225877,-104.31749775398103,-1.0201509220986045,2.524864329499407,-69.66012130744663,-0.4557339513982365,10.532255273149213,-68.34484218082729,-1.3214311756213135,0.5276176770933827,-115.9002571833073,-10.167307054014959,3.006128482220322,-68.54194115191434,-5.023442619738457,15.156433291852899,-70.31496915265585,-4.97608739043007,1.9229477297922615,-113.23598415166289,-4.499796477766236,-1.0314945300427079,-68.61027464176227,-23.309599052758777,17.70522936289825,-5.847499401549308,8.172263399035149,1.663670672073203,-69.18034803615815,-6.941686034447418,8.198230020348674,-114.12121326860554,-2.1653861290484606,-4.61790394620148,-65.31459679677906
32.33925723716109,-61.113502979672106,-2.248131979000389,31.412185177423456,12.422204378800691,-6.925681584330115,-9.218761819794805,8.005317718354515,-2.6524199516417735,9.927159912294483,-6.70028889062755,5.801368261726735,4.932131870805723,5.014259514342951,-56.22743968128749,-2.920614339529743,0.7968964914225877,-101.67761389221185,-1.0272401089710868,2.5313977769987606,-67.9124767763174,-0.4556940540532045,10.605758686511793,-67.96562514306545,-1.3214311756213135,0.5276176770933827,-114.01166846663561,-10.095431668845032,2.9696966990962927,-67.1511575727704,-5.023700599671344,15.314560288266849,-69.80596719911314,-4.953534333862088,1.8899708594381877,-110.8601062627082,-4.414932587036643,-1.0822155329212981,-66.24457081667718,-23.309599052758777,17.70522936289825,-5.847499401549308,8.193641162514268,1.7591323645644383,-68.6343655424212,-6.917416641554728,8.175384479911159,-113.04609933633054,-2.1389782870217644,-4.630425469006141,-64.31561189113152
32.28578441152685,-61.01581412002936,-2.7036485448205685,31.450994228924824,12.64515685325743,-6.799170896966149,-9.268277111958662,8.03204418895413,-1.0643636885899248,10.165744643745402,-6.755362612647997,6.5967309908114835,4.958992261837093,4.648209406659365,-60.059641826267026,-2.920614339529743,0.7968964914225877,-111.88331044984452,-0.9769925052854876,2.5008557199149473,-73.68159981953869,-0.45562763136683054,10.374219932794306,-66.32219009394224,-1.3214311756213135,0.5276176770933827,-113.10722117862178,-9.991142013662913,2.9014870308929943,-67.48700678662522,-5.028198845954071,15.191451770570204,-68.40624970498257,-4.927106924326476,1.8484823523439706,-112.04652662425659,-4.413163216926805,-1.0946068412576253,-68.41332210152743,-23.309599052758777,17.70522936289825,-5.847499401549308,8.256172970487714,1.7658154764583278,-66.46662682799963,-6.871530652725725,8.05464973752156,-110.2938051240419,-2.0952590752945413,-4.649817212637402,-64.51949322567226
32.09910913014341,-60.99054812732508,-1.950501849427706,31.484454057015373,13.58922739331039,-6.380511530307618,-9.296695953569174,8.038076196870874,-0.8892168468071233,10.209035389489822,-6.7796318940967115,8.359403649209643,4.971712500588888,4.625159035998396,-60.12929569309356,-2.920614339529743,0.7968964914225877,-110.61187782152803,-0.9713313113675086,2.4958712460281536,-73.12040502438539,-0.4558656746689448,10.46320458288078,-66.14555278580188,-1.3214311756213135,0.5276176770933827,-111.49475012930806,-9.96696176413127,2.8902493496454085,-66.4638190087814,-5.02563019757695,15.333989491504608,-68.00989143172909,-4.926288932631107,1.845930736925936,-110.77415074334229,-4.409177843864046,-1.0955942305308837,-67.36165288134248,-23.309599052758777,17.70522936289825,-5.847499401549308,8.269782125297725,1.7763357374860584,-65.9284446860809,-6.867658203717323,8.038801572075904,-109.44240498912427,-2.0926386712975615,-4.645812297023999,-64.19230907128745
32.178637685064494,-61.0813445447147,-1.3305197810061475,31.39723301269309,12.611092856150366,-6.837128252989676,-9.245504186384316,8.006844523569617,-2.23770029933754,9.920479090328065,-6.728995799724279,5.412996231766533,5.005072977913682,4.139510986673937,-61.48020684493281,-2.920614339529743,0.7968964914225877,-113.48797921927324,-0.9431085553458296,2.4794229967781973,-77.07266508460975,-0.4561402720274501,10.424125654816454,-69.28502790571157,-1.3214311756213135,0.5276176770933827,-114.98485650387214,-10.225830991851652,3.04613781528207,-68.42811117360343,-5.017586244201334,15.42778678417811,-70.87862814800629,-4.990845085049979,1.940792874395675,-114.00053331892205,-4.639770844718655,-0.9305405955574875,-70.04828963869741,-23.309599052758777,17.70522936289825,-5.847499401549308,8.223625605889804,1.6254655218464205,-68.03543504617089,-6.938358456420641,8.129295880148469,-111.23597023114402,-2.1807216367607283,-4.59864776711733,-64.47480914712004
31.118211492804893,-60.60416971762115,0.3487978239073968,30.581804722197887,-1.3029654123645664,-13.680749928171036,-8.698845134855555,8.009315933575301,-11.012861418484283,9.515760872262478,-6.624781720014093,-1.9482498363411098,3.786027151827355,3.006988977437083,-0.41499489817959656,-2.920614339529743,0.7968964914225877,-12.625866319887308,-1.659517029340098,2.84760304872661,-14.150666406327797,-0.4671626297238311,9.1625784965184,-4.74125208551369,-1.3214311756213135,0.5276176770933827,-7.319469057666478,-5.810999018037937,0.3901423727545857,-6.833094614623092,-5.085243735081263,16.64560775863263,-3.6732997036942905,-4.09313742480396,0.4462188649164053,-14.167503857989214,-1.430822637549122,-3.090165898657599,-13.204871816989867,-23.309599052758777,17.70522936289825,-5.847499401549308,10.484159659212782,13.635668926062777,3.0306689083627436,-5.474914055364141,5.462795290546518,-35.499938233092756,-0.5469582640165912,-5.382226276976778,-15.429850472626
31.645419733141726,-60.748106224649945,-2.1164319727321477,30.734888885770317,1.1181745062381467,-12.652323476971741,-8.694087478418176,8.005729881641319,-11.078305150600887,10.224100622723851,-6.742101976588709,7.931201074753099,3.8429036212716516,3.1361059324917715,-3.5921415633567513,-2.920614339529743,0.7968964914225877,-10.31880362144594,-1.7127037304071817,2.8779031649258777,-8.185452357618413,-0.46729754206607954,9.135177235523178,-8.727179163218782,-1.3214311756213135,0.5276176770933827,-4.424769257264931,-5.6145443643837565,0.2420442870100829,-6.550274108749848,-5.077175054439478,16.520182823080923,-4.7169360020978,-4.100018839107151,0.44760879663289543,-8.500317491572595,-1.338736138132444,-3.1937729958208116,-10.88476310357345,-23.309599052758777,17.70522936289825,-5.847499401549308,10.577615105876985,13.252634857098247,7.093451868278743,-5.224223052353253,5.121846123843101,-23.362721977416005,-0.3661796600445455,-5.470446292702144,-13.361352651440235
31.870636472665403,-60.802705642003545,-2.7847022537178603,30.842064277725413,2.175531792458403,-11.933419529745963,-8.720633442009326,7.992378784931547,-11.49373236923206,10.15085582971287,-6.816615892009643,8.691061477911806,3.861227219423826,3.2257318353845665,-6.08602053366738,-2.920614339529743,0.7968964914225877,-11.791525754009815,-1.7578900337878802,2.9036752388736407,-6.756201744496961,-0.4673238625518696,9.069942962705351,-11.16888267760865,-1.3214311756213135,0.5276176770933827,-7.415340546556152,-5.4850979812071365,0.17593334091721008,-6.103472879109809,-5.071698652618334,16.78163597939097,-9.25049175863575,-4.082428011770919,0.4204566701735125,-9.393593086459155,-1.287136973839986,-3.250577460281574,-10.002514500248312,-23.309599052758777,17.70522936289825,-5.847499401549308,10.499677304061137,13.815406939425056,3.3855986459891643,-5.051514307695171,5.098629869877296,-17.766962994149388,-0.2219733429800517,-5.540397104140412,-7.941189880843725
31.98839915154689,-60.793153667708,-3.059907669017443,30.86694787371894,1.899905836045224,-12.016003444613922,-8.701295120060717,7.997097161695411,-10.943715247149793,10.475828224141173,-6.812354850055645,11.9313184823868,3.8828310377444337,2.8072457429353523,-6.924765700734291,-2.920614339529743,0.7968964914225877,-10.592806617478331,-1.7723622500411054,2.911199214240883,-5.892241753192803,-0.46734009447716834,8.854007299650462,-10.69997436355246,-1.3214311756213135,0.5276176770933827,-8.418674961469446,-5.467686954294445,0.16432353311221753,-6.741605018261859,-5.070483375143453,16.787978888802712,-8.501239815898671,-4.072503745182972,0.40335151475271624,-8.577858262660257,-1.2876847569070486,-3.254146494188179,-11.142835267500333,-23.309599052758777,17.70522936289825,-5.847499401549308,10.524535119494919,13.724802873130084,4.921506466538043,-5.0490290521865555,5.056474906239032,-14.961058683275608,-0.24756330790637374,-5.524937801073196,-7.413010620841934
32.00548819011939,-60.79155878995003,-3.8788999569121376,30.923136611074323,3.2241242479404333,-11.542829356105578,-8.669412000165554,7.993236818811658,-12.139725410161493,10.660442808533256,-6.825494792870795,14.195035918703574,3.846840664122185,2.704336415180406,-6.944795297598416,-2.920614339529743,0.7968964914225877,-9.961406083900677,-1.796559371140632,2.9241773033091327,-3.8256202065114717,-0.46740510043778766,8.917164904456866,-11.066494232449905,-1.3214311756213135,0.5276176770933827,-6.80484017815488,-5.4457849332928845,0.15750446592963602,-5.220486635253128,-5.072693498645716,16.634387576732358,-9.319863993829358,-4.062183207716861,0.38615712617757253,-6.748853582980686,-1.2270408506093626,-3.257813145015574,-9.26013344205015,-23.309599052758777,17.70522936289825,-5.847499401549308,10.483150488064044,11.82284498491781,4.195585979615048,-5.047477178055896,5.0129534469086385,-11.7012131589997,-0.21266115690488877,-5.536146154595309,-6.014823772196096
32.017960827772136,-60.789146386054384,-3.5131919092148296,30.87131793133058,2.440105123075085,-11.853386319751676,-8.725435335805775,8.000667456975812,-11.315075906194906,10.7050804978986,-6.799565123911214,15.622065586935179,3.8857844096657668,2.589262745586562,-8.097678362140094,-2.920614339529743,0.7968964914225877,-10.592231169817463,-1.8286694226088662,2.937787786533761,-1.4582059105259972,-0.46742181112662334,8.862174902509661,-10.608339050692958,-1.3214311756213135,0.5276176770933827,-6.312761943490191,-5.399581995687287,0.11833899522039237,-4.205728066158617,-5.068801538664856,16.961557632512726,-9.450761564255036,-4.058411669991024,0.3768336664265964,-5.856124082596747,-1.2277780689677285,-3.28524989583238,-8.128653879530797,-23.309599052758777,17.70522936289825,-5.847499401549308,10.530875162565088,12.77941492531367,4.9838134126248885,-4.937092107497521,4.930295349485956,-7.695113152609299,-0.17955689744666448,-5.555338596716902,-4.3139689070266325
32.19796646086859,-60.82065638768112,-3.7724076683608523,30.915797500768086,3.3394011185939716,-11.493366394653739,-8.762469521797183,8.004367344235412,-10.378927783885066,10.77724986578506,-6.805477866509635,16.729964550589795,3.8974527877724188,2.9072409519778626,-8.410597482389914,-2.920614339529743,0.7968964914225877,-9.473402784100863,-1.8412944928814075,2.9456416435809,0.2919831783721758,-0.46735505123420057,8.885396231908528,-11.013542727266202,-1.3214311756213135,0.5276176770933827,-5.746658915724726,-5.353818232446892,0.08005745066448533,-3.1828624341116534,-5.071519413461838,16.577713995486455,-10.152970825802068,-4.062506416969982,0.3812184027286404,-4.934062187949415,-1.231802292563223,-3.289531079606217,-7.627221031745858,-23.309599052758777,17.70522936289825,-5.847499401549308,10.45458422216087,11.587465757571188,3.289319398238762,-4.959060230256511,4.938443143566446,-7.042711669454871,-0.18125579588761637,-5.556804911570686,-4.153370343411844
32.44807427045651,-60.841412401917665,-4.858163528576453,31.012490992983626,4.846023855631974,-10.840822774535017,-8.740408234338268,8.000795210697838,-10.891104161403877,10.712639243072145,-6.800189832219003,16.471098407226087,3.9397005324265892,3.230688620649358,-9.896032064644894,-2.920614339529743,0.7968964914225877,-8.774637648507685,-1.8346790961828432,2.944440943479852,1.039395610549926,-0.4672045974909854,9.175703199905714,-13.15701522006414,-1.3214311756213135,0.5276176770933827,-5.654558520949919,-5.354248577520059,0.08392987659902684,-3.09259983681552,-5.072846508341425,16.33306879052443,-11.05425008689128,-4.062686602365571,0.38554645532470055,-5.933870404705054,-1.2610066335140393,-3.2712692988374554,-8.6974535039931,-23.309599052758777,17.70522936289825,-5.847499401549308,10.38158476322885,10.489460538154471,1.17450281103633,-5.0059886962491635,5.003927492386837,-11.33557306456769,-0.171813882533716,-5.563012982945158,-5.425176983463343
32.51016809491299,-60.86599780296459,-5.213529313735657,31.01214870376732,4.935484828347414,-10.820381357634561,-8.726044018316317,7.996279618750237,-11.256995094987396,10.712700655617484,-6.796556107079294,16.18130372989137,3.9205550509370437,3.315132881967223,-9.558972982486171,-2.920614339529743,0.7968964914225877,-8.809111792370945,-1.8415887915673226,2.94700886540362,1.7201490801239085,-0.4669604626133886,9.184317597952171,-13.6071337014294,-1.3214311756213135,0.5276176770933827,-7.162736200470679,-5.358223643814273,0.08957180306779022,-3.6928614004561346,-5.074061922399408,16.22034836500702,-11.848225441678386,-4.063777653033211,0.38798942056314256,-6.495409914782439,-1.255135586402553,-3.262335995713454,-8.663741576142131,-23.309599052758777,17.70522936289825,-5.847499401549308,10.391401517572648,10.453590855082044,0.8531120221422306,-4.999153604900183,4.9927890061937115,-11.069378778736308,-0.16083743721226496,-5.5667779301350055,-5.533776550215521
32.45189668572678,-60.855832997508,-5.038151528813622,31.02750531562712,4.957030374155769,-10.773709752488315,-8.725906878023373,7.997998571273538,-11.720539927595851,10.751269028845524,-6.785998542805346,16.825477251473398,3.9170011336212283,3.636669014562366,-9.933880849545158,-2.920614339529743,0.7968964914225877,-9.164494535259,-1.838666952366275,2.9448911828717423,1.012833093785666,-0.46684507829925054,9.225844661770335,-14.559942080654084,-1.3214311756213135,0.5276176770933827,-6.5254968388807555,-5.339643866827532,0.08186979200124256,-3.56083543776921,-5.073594067037144,16.199338082646005,-12.270738294064694,-4.064621393303446,0.38976249915641,-6.686638838342301,-1.2572922017757813,-3.2526880424781397,-8.981982439688764,-23.309599052758777,17.70522936289825,-5.847499401549308,10.3758266047671,10.023207897267309,-0.9277205485012932,-5.01959467671665,5.024303854808545,-11.644662495339155,-0.19613264762911242,-5.548427430895201,-5.831084706380603
32.515975291555336,-60.87438055774635,-5.25245979683499,30.97918434346341,4.144920871908582,-11.085128771569039,-8.76131742405258,7.999683549014409,-11.505841772039812,10.703252330269418,-6.783287704425332,16.015243278548077,3.9316244623354715,3.442610265201256,-10.905884629969885,-2.920614339529743,0.7968964914225877,-9.454741293914278,-1.8439092762858027,2.946843449917638,1.981385227150426,-0.46691185660565543,9.50887062891631,-15.123664901800002,-1.3214311756213135,0.5276176770933827,-6.684115166890276,-5.349572981243748,0.08382466678616363,-2.990413679020673,-5.066020757804554,16.819968325263947,-13.131140392995036,-4.06426653200579,0.38732902963071647,-6.476067090731931,-1.284291024759884,-3.2575945029679008,-8.199089968309814,-23.309599052758777,17.70522936289825,-5.847499401549308,10.436141194977784,11.100875926100981,0.012832031696870416,-4.969574268785784,4.960087941030929,-8.558410641018899,-0.14864973672090454,-5.5725569622733575,-2.6786313887892383
32.67866846523705,-60.9270016524984,-5.799424675822043,30.981743008555654,4.12085169898041,-11.074375506083532,-8.654865132514871,7.973939494915552,-14.094238058301475,10.739402199916686,-6.8113032591305975,15.26712364122659,3.9635685415591357,2.8155187913105792,-12.897031330642193,-2.920614339529743,0.7968964914225877,-11.51236818357626,-1.8435266909152717,2.9476526321840892,0.6954388128904174,-0.466684160810657,9.040621862203654,-17.15794986863495,-1.3214311756213135,0.5276176770933827,-7.954193236013886,-5.354331333760194,0.08192179777250103,-3.762240246089192,-5.06620932188263,16.772264316756036,-14.863619566793561,-4.0742370090001625,0.400249976952771,-6.98527000545225,-1.3188404586774907,-3.2462310052562207,-8.399037954470115,-23.309599052758777,17.70522936289825,-5.847499401549308,10.416391580427046,10.935593414223147,0.5579254561824385,-4.995122376388386,4.95372522773226,-8.038662671413782,-0.15627928225526067,-5.5711361389197585,-2.9228509634635227
32.63646884556488,-60.9178830642918,-5.663108267895458,31.003381396921515,4.4723758050644165,-10.901448226974093,-8.601902883287538,7.963838755527046,-15.04690891027466,10.611751073285998,-6.799389236192185,13.487306896697687,3.9730535028988494,2.967352006526567,-12.712756671880573,-2.920614339529743,0.7968964914225877,-12.495099470427594,-1.8398748160741776,2.945439685300808,0.7530658585929189,-0.4670078463930539,9.013173509020309,-16.191845443311323,-1.3214311756213135,0.5276176770933827,-8.014896006776244,-5.357801575701925,0.08114061206143741,-3.95174506989936,-5.065179182815571,16.97966234186121,-14.25687182260047,-4.068288205288585,0.3906160437123134,-8.240181442514189,-1.2966050304547276,-3.259359837875796,-8.021186025592291,-23.309599052758777,17.70522936289825,-5.847499401549308,10.451254829974484,11.361344705648765,1.216712230823692,-4.954256805055185,4.934272772506335,-7.6855776257639725,-0.1395022415845248,-5.577735963004172,-3.095967501275787
32.655944999701525,-60.921117909145906,-5.176162666115037,30.96295025310911,3.9219765741022257,-11.206893488171017,-8.598581478394564,7.963952922417854,-14.93965012215508,10.671566983013463,-6.8014983236634805,14.798163294264361,3.9769253454103954,2.732515281369308,-12.901842601389992,-2.920614339529743,0.7968964914225877,-10.482251481175034,-1.8391563551539236,2.9454452800962327,0.8228580708245197,-0.46702419570748915,9.011427999551962,-16.558222752899542,-1.3214311756213135,0.5276176770933827,-4.888351023525686,-5.344137172565486,0.07411396807725246,-2.428935330557577,-5.065675341855948,16.80580227734861,-14.364627545304964,-4.071445291203175,0.39581844389000087,-4.896196356632281,-1.3114846118439867,-3.2460092821735307,-7.289500849235548,-23.309599052758777,17.70522936289825,-5.847499401549308,10.451844806247427,11.07578412487221,1.1232524660374317,-4.969338586645694,4.923921129605177,-6.783808810754447,-0.155980426736112,-5.569453353041995,-2.501088760607999
32.37021577776412,-60.874275057944715,-4.5532511914341,31.00586739907084,4.618168901952026,-10.90627433725002,-8.644770079023855,7.979486914605508,-13.201030634535886,10.681021648478625,-6.793172374328643,15.814130307819292,3.9721250711636795,3.2480445004890846,-12.194259090480022,-2.920614339529743,0.7968964914225877,-11.027253916704069,-1.8350918224696406,2.9426973568111126,-0.18358074896190502,-0.46684651919335673,9.344318719053962,-17.229098217296503,-1.3214311756213135,0.5276176770933827,-5.278785582246115,-5.367088977879129,0.0792432702380167,-2.515083065527424,-5.0701474093185315,16.203710588130267,-13.027773174980194,-4.072084830810322,0.3964584384484025,-5.064345172416253,-1.3269191561918796,-3.250447687671045,-9.377131376687021,-23.309599052758777,17.70522936289825,-5.847499401549308,10.40932505142406,10.548512368502221,0.44593764980278294,-5.02817813847354,4.975271066199131,-9.875153339067658,-0.15237579657475964,-5.573681723792144,-3.8309119964590543
32.31781774361235,-60.84205288844305,-4.644256949445072,31.04735492391573,5.0096918154611565,-10.661670778774205,-8.685273673525392,7.992218800367036,-12.33197949211339,10.778879779635183,-6.818864374353953,17.025499194515184,3.9756068613457405,3.3242293259643825,-12.446699108142754,-2.920614339529743,0.7968964914225877,-10.54333163169358,-1.8390054217605638,2.9449581271620757,0.6018589339100302,-0.467083474919648,9.221573295074014,-17.235281231026995,-1.3214311756213135,0.5276176770933827,-8.356987868704785,-5.366789406829116,0.08668412923484015,-3.4376026731513463,-5.06973723578576,16.289993127000912,-13.23983061165583,-4.070241084765609,0.3927002074303058,-6.462496877357115,-1.3134263284438266,-3.2657628248078816,-9.787803118297589,-23.309599052758777,17.70522936289825,-5.847499401549308,10.398353642306787,10.827494429551866,1.0005008058739762,-5.0069066253277965,4.976790201591764,-9.74586823390391,-0.15024334942970868,-5.573946209306913,-3.6084317613129464
32.2812816159432,-60.83145080021288,-4.905662958508669,31.04115549914748,5.087420117687502,-10.661939831125647,-8.677035314049975,7.992483829722502,-12.479463451658994,10.78584079145472,-6.82324605591251,16.468812585689513,3.9807366669857602,3.5845900719027726,-12.63466456755995,-2.920614339529743,0.7968964914225877,-11.295337999776617,-1.8332458018936815,2.94327997371834,0.005669603363912756,-0.46600902136072353,9.408533818575023,-17.492194661109465,-1.3214311756213135,0.5276176770933827,-8.001855326483803,-5.392830995453312,0.09603183307551627,-4.112064030937221,-5.071222521849954,16.238027734941376,-13.694883236619035,-4.07183599859583,0.4018699670892357,-7.8757284987469625,-1.3266173029420083,-3.2414469136663144,-10.256735611804633,-23.309599052758777,17.70522936289825,-5.847499401549308,10.359250730285552,10.33359578705143,-0.28607185007503055,-5.06116968072792,5.030414904175,-13.460421581594947,-0.17701385948784193,-5.564499817707355,-5.5812133786914195
32.30752954027681,-60.84160829480629,-4.762841286328026,31.055046505551847,5.344177304958606,-10.542931214833056,-8.680199140116391,7.991215051024394,-12.26927424365695,10.7366005822603,-6.792593456557483,16.378886323844426,3.9724269910861842,3.4840819537577925,-11.83129370479342,-2.920614339529743,0.7968964914225877,-11.385206959549883,-1.8257466460451424,2.9401806828372523,-0.221548278146253,-0.46617522136045725,9.354010426589154,-16.885053634135282,-1.3214311756213135,0.5276176770933827,-6.657484835192985,-5.418122768022258,0.11387461190544551,-3.6404225921001814,-5.070862680446077,16.293059581711336,-13.284668878612306,-4.077218257436192,0.4106625322843592,-7.1553543051628985,-1.330973938879778,-3.2410158800723643,-9.757934691970188,-23.309599052758777,17.70522936289825,-5.847499401549308,10.370779599213629,10.451607878428987,0.28485501232955635,-5.045739038321028,5.018846567034907,-12.03773776744196,-0.17795651381946098,-5.563750485529194,-5.1611347798517935
32.59035175744039,-60.97245804211868,-5.323717157788219,31.006501354877408,4.7174136542455685,-10.856349991003441,-8.649583943199449,7.970904351385915,-13.22467405542657,10.668929498487627,-6.772423753179146,15.313711671567559,4.014652051128555,3.2334942799336237,-13.853081065740312,-2.920614339529743,0.7968964914225877,-13.341587892725535,-1.8119724590938233,2.9326015700615766,-1.7760196210887536,-0.4666615093108179,9.338313782999585,-18.526254942040495,-1.3214311756213135,0.5276176770933827,-11.462301217905047,-5.473371765153311,0.14073291571525587,-5.169754819154258,-5.068847522167944,16.28246711161268,-15.40910620527226,-4.093118346528737,0.4346957691140344,-9.521300885285658,-1.3901156491331592,-3.21247784561997,-10.66131920317802,-23.309599052758777,17.70522936289825,-5.847499401549308,10.370730915046064,10.058712462082429,-1.0858056961769904,-5.067266062415321,5.007278269055181,-11.053610225940304,-0.16653216303520002,-5.569293854377112,-3.774870879366091
33.09762219957068,-61.000432470508116,-7.970861321456117,31.001685921591957,4.682577663801796,-10.905883164177059,-8.615661760473749,7.960065938045394,-14.345903151656007,10.801406454486258,-6.82580598806017,16.313397467135637,3.9962556104926663,3.4283496546569907,-13.588340075157863,-2.920614339529743,0.7968964914225877,-11.742873628546505,-1.8369419047245459,2.944976467973372,1.651047195388223,-0.46581828242797646,9.23665658369107,-17.99726937059289,-1.3214311756213135,0.5276176770933827,-8.238778687411973,-5.409905492796038,0.11411832419783535,-3.3516731278794065,-5.067132385679684,16.575191562545108,-15.668375679697942,-4.090394492259778,0.42943162984789,-8.540781032391095,-1.3236338417795475,-3.238963814438164,-9.101726682884294,-23.309599052758777,17.70522936289825,-5.847499401549308,10.377607559893494,10.225967219403138,-0.1819435910947007,-4.9842388535150635,4.966901504584683,-8.626006167712259,-0.14392425449496643,-5.577747550234634,-3.22550078789261
32.775540089453365,-60.92946884820911,-6.186212144473242,30.990867336337228,4.412030818402584,-11.034314805535015,-8.68526349637255,7.9793484014700535,-12.967849334281613,10.809363884099282,-6.8259522931203716,16.280998408239235,3.9918432325348894,3.05531103464824,-13.758257240772872,-2.920614339529743,0.7968964914225877,-12.849285719826977,-1.8413378259828934,2.946630780729757,0.8138951883054126,-0.46650733133970523,9.243489778434439,-17.78470425985813,-1.3214311756213135,0.5276176770933827,-9.6396874423214,-5.386301437140138,0.10136256821377782,-4.2705762632142985,-5.06771125275959,16.56053902887263,-14.905255584152302,-4.077506508547872,0.40671049437139317,-8.034132984151398,-1.3344175059735042,-3.24111858160945,-9.622787185244167,-23.309599052758777,17.70522936289825,-5.847499401549308,10.375938189366758,10.218771947454494,-0.9640588927883318,-5.044129362312042,4.984516108280203,-9.436749423639558,-0.15356048871687056,-5.574351043934622,-2.9128600149963795
