41.327975771902516,-64.34494802628396,-32.238858939254925,30.138557618404146,-4.616799696516102,-15.570357987861245,-7.06241855423622,7.315184087953504,-43.29910229594501,6.014488594248298,-5.582130379317281,-47.736624928693466,4.776250652506877,3.059780154280501,-49.67382203961979,-2.920614339529743,0.7968964914225877,-93.94458432037604,-1.130734554326334,2.584771714489517,-53.20524292563192,-0.4619593079140361,9.61154686809758,-40.56892356266934,-1.3214311756213135,0.5276176770933827,-3.397806496153759,-5.497480522504786,0.1938562170719465,-3.1037313190200386,-5.017593441924084,16.524235549155982,-64.75785936933593,-4.895132237447724,1.7807662751299236,-103.62965805488291,-3.9804426853877644,-1.5048249038776607,-55.13489360054139,-23.309599052758777,17.70522936289825,-5.847499401549308,8.228484664482126,2.215914701589698,-68.7418236579182,-6.766843695189786,7.763415797875028,-103.25204801554797,-1.62658952603322,-4.927762222314274,-46.75987738606942
41.39647489081108,-64.29173536040551,-33.0166874445094,30.106619217317114,-4.890324572498384,-15.753322835798015,-7.015957620860907,7.285331226636789,-44.43299027534566,5.937222446278579,-5.576843317557734,-50.794513962424936,4.797815180299413,2.7738786929260906,-51.783126569136556,-2.920614339529743,0.7968964914225877,-98.42158395392633,-1.1002039421918628,2.5737812479663655,-55.473090150454404,-0.4619373618998896,9.612472237154297,-41.885901949886865,-1.3214311756213135,0.5276176770933827,-10.526512491066049,-5.591595287913545,0.2601853749653095,-7.115423251425767,-5.01756672670865,16.528093605360052,-65.2153804220959,-4.921037522336676,1.820644997457515,-107.06843695823865,-4.059596829077184,-1.4787674050125617,-57.13029382764888,-23.309599052758777,17.70522936289825,-5.847499401549308,8.256044627848464,2.4076410545382236,-66.21867328501729,-6.74113145714921,7.730672656870329,-102.55082357552746,-1.588475525460934,-4.9541628750015585,-46.77792971373496
41.79832786612781,-64.41812440644966,-33.00989114954357,30.12749503403675,-5.146897667796004,-15.786098764924073,-6.9449789674231015,7.26086214538717,-44.969110154665486,5.770160646109454,-5.603723024144574,-53.52131706055833,4.907551965064761,2.593080441199037,-58.86734864294739,-2.920614339529743,0.7968964914225877,-107.94880882794266,-1.0319024182939591,2.5429368245527613,-60.86720200193014,-0.4626614629775872,9.451982385896681,-42.3968322252814,-1.3214311756213135,0.5276176770933827,-0.9768682005585703,-5.340241516091539,0.12137180422210897,-1.8552085292107883,-5.014291060892257,16.259952886581864,-67.74570831552677,-4.985542705126571,1.9119481773965943,-111.04121949888896,-4.236125423095677,-1.3748476897757753,-60.530680100673166,-23.309599052758777,17.70522936289825,-5.847499401549308,8.151261325603024,2.11689204000455,-72.07569160840329,-6.85061427217707,7.894426518654354,-107.22771311379365,-1.7106581055015488,-4.898894223435535,-48.53568731799888
41.58056261197647,-64.23379737610243,-32.482501622309876,30.133990535315927,-5.239895548695225,-15.770319684040953,-6.926610557363418,7.252681388486929,-45.57477037496797,5.811933515403844,-5.654267349924416,-54.07348935699702,4.921587004165279,2.395869474841926,-61.15973027521881,-2.920614339529743,0.7968964914225877,-112.38629907535076,-1.0199133478845552,2.5394072631127735,-62.787748989848254,-0.46268197039937525,9.405522393634579,-43.57383892558772,-1.3214311756213135,0.5276176770933827,-2.7743990878148956,-5.293716081761135,0.09699621420741955,-2.459235363602975,-5.014616245652085,16.262309379171356,-69.01128009811457,-4.986589602034854,1.910854936732252,-113.73584233334898,-4.244490970570748,-1.4014814433173401,-60.968788157668016,-23.309599052758777,17.70522936289825,-5.847499401549308,8.17183211980715,2.304915026987885,-70.52453550076976,-6.8359114603781,7.852011352260215,-105.88428017353536,-1.67026532924436,-4.926615354607029,-46.97036891285744
41.63739630376408,-64.20919575226776,-32.52077867288316,30.12024704590189,-5.4209653839386025,-15.823671147079493,-6.913723253563869,7.245012782372731,-45.20700372538051,5.780003592391586,-5.6514323094375785,-52.953930666215996,4.913181176564711,2.4012914299237282,-59.844809048537755,-2.920614339529743,0.7968964914225877,-109.96369110591658,-1.039102833951063,2.5476732932386525,-61.65120979053826,-0.4627289421661892,9.300978514142988,-41.06795058929673,-1.3214311756213135,0.5276176770933827,-0.4866359013821544,-5.281591242624457,0.09434054916984902,-1.5360630689982955,-5.017889124345069,16.084652074975004,-66.66147365348135,-4.975697491889631,1.9039218603964791,-111.10058846921804,-4.2330632728887325,-1.414579352193101,-60.399032194596494,-23.309599052758777,17.70522936289825,-5.847499401549308,8.136356698581038,2.467508608799938,-70.74191254357834,-6.85144136737226,7.895545880629604,-107.91402518560989,-1.7145106355614868,-4.896370604763638,-49.36835763739139
41.43193319495313,-64.24744628663575,-31.691092185853332,30.18725207412077,-4.736846329897997,-15.489465149032387,-6.954118584901169,7.268931631691971,-44.66534989081329,5.8727700493772215,-5.668266932910436,-51.41198489591138,4.9280202793542305,2.6821274305949627,-59.659663904870136,-2.920614339529743,0.7968964914225877,-108.23003557189043,-1.0478706457373073,2.5517320035563524,-60.5544096242257,-0.46291747372282144,9.279094875861652,-40.0735878738623,-1.3214311756213135,0.5276176770933827,-0.13011974299743656,-5.242436756459586,0.06735154619784972,-1.1726128369724265,-5.018273284399092,16.119271251704507,-66.39903567788267,-4.960485391224444,1.87872737639355,-109.75843955633611,-4.171390343029734,-1.4381405944521608,-58.641811353830334,-23.309599052758777,17.70522936289825,-5.847499401549308,8.17536594280291,2.533540732838908,-70.88040591572351,-6.837470243694444,7.8511488067953294,-105.71842426310131,-1.6962111199996834,-4.897287784950738,-48.1114644919244
40.90050569092208,-64.05974415337852,-30.839019389046005,30.15795219350079,-4.700188792523743,-15.55426122850082,-7.004210264394096,7.273453213837047,-43.42113818436194,5.9750427466530756,-5.6887132524644,-49.70058341493804,4.846052892830723,2.7341060038216853,-55.58327347488581,-2.920614339529743,0.7968964914225877,-103.83048279553336,-1.0859104948616378,2.573111947694647,-58.19005526275498,-0.4624381715769533,9.446569962630022,-41.00950517488548,-1.3214311756213135,0.5276176770933827,-3.9688317411400718,-5.373460762381151,0.14731618549472175,-3.5968662178296285,-5.01932809695338,16.21283016109954,-65.06920482355402,-4.9273785076437555,1.8319840257236628,-107.78243600680577,-4.093129082179741,-1.5058653285036787,-57.954431700813586,-23.309599052758777,17.70522936289825,-5.847499401549308,8.198621637307323,2.363926560341949,-68.68289747791366,-6.790999165120224,7.808725041002727,-105.3839534720107,-1.6268650694831124,-4.95165686301669,-47.273746111548625
40.404292699038386,-63.9599552170877,-29.40191479978629,30.264023648937613,-3.8298418042487907,-14.989391302811873,-7.301705106246763,7.413525893091559,-39.52519288244992,6.496628432214759,-5.867637877475718,-44.37609962951912,4.778461256248877,3.3678142631260513,-54.71944074970225,-2.920614339529743,0.7968964914225877,-99.250057086134,-1.1181609628761648,2.590836696749114,-54.48990689477024,-0.46255096182135064,9.50450822198949,-39.404790582333845,-1.3214311756213135,0.5276176770933827,-5.994074282898477,-5.389016859133423,0.12795885971629278,-3.0772843483998837,-5.02634944855192,16.034331129878055,-62.950267723506215,-4.892043011302062,1.729778384426642,-103.56680609054041,-3.896070631384652,-1.5976249988799784,-54.03417771509182,-23.309599052758777,17.70522936289825,-5.847499401549308,8.49285007730319,2.815914789513478,-63.85930503676765,-6.510965877771836,7.399790518299185,-93.68742247242751,-1.5316867383942485,-4.98437464016065,-42.96456250954555
40.667378526728626,-63.9203571887816,-29.79072358433082,30.251836530011573,-4.112008329921585,-15.046812152984092,-7.2389772700934225,7.392308736763505,-40.378567942934566,6.35054098127772,-5.811795059972173,-45.605205181874396,4.813405915953192,3.3666909337607236,-57.190704864460834,-2.920614339529743,0.7968964914225877,-102.18134597817252,-1.093892425435791,2.5796785719013213,-56.61023687040269,-0.4625728261234512,9.416309297208471,-39.127931795079334,-1.3214311756213135,0.5276176770933827,-1.660376782482647,-5.290334183409768,0.07675026197780177,-0.9709226186454636,-5.0246205862396875,15.963481355594315,-65.5189164868921,-4.931471940953966,1.7892103927919152,-106.3658260944271,-3.9704055901925095,-1.524332837025938,-55.624994000784646,-23.309599052758777,17.70522936289825,-5.847499401549308,8.376953140802733,2.806146801770068,-67.79561095849924,-6.632778242815743,7.5761488174891145,-97.43461298506773,-1.6367983729528097,-4.926141281214814,-44.85314438966838
41.41767495793196,-64.37884334117891,-32.14351554166541,30.22618016913439,-4.622379120656703,-15.288753391588822,-7.017881518075491,7.302138057178857,-44.548645791779165,5.952186566556426,-5.655893512581904,-50.549283393699014,4.917376055082961,2.271277598757049,-61.870490803277995,-2.920614339529743,0.7968964914225877,-114.31465136799093,-1.0561459024392932,2.55540910333254,-62.82520756619398,-0.4623524913178324,9.247860040816374,-41.729471195848454,-1.3214311756213135,0.5276176770933827,-0.4919992345541395,-5.258112965957938,0.07808015040327287,-0.8837978980499415,-5.01807793999047,16.356261124807663,-69.38675175754804,-4.941823172206649,1.8656730603189728,-113.41043663204448,-4.144704897850987,-1.4307713841588667,-59.28397563564263,-23.309599052758777,17.70522936289825,-5.847499401549308,8.177585353342916,2.1946382408918765,-73.45213448240776,-6.823592053748887,7.836282173400966,-103.91086973560974,-1.7016324258790156,-4.875658410165379,-46.596460881533865
41.35044189717246,-64.31305336864136,-32.22630927871436,30.207036043347312,-4.7927680656488985,-15.394107017044254,-6.983219693438977,7.290156143270825,-45.238969576935986,5.941806443717379,-5.689337224042437,-51.895200465862054,4.929120308793738,2.357517629316466,-61.88600620780499,-2.920614339529743,0.7968964914225877,-113.32899460988622,-1.033589147595803,2.545172811635204,-62.605115275029725,-0.4628122815478245,9.174047484553064,-41.97482331479798,-1.3214311756213135,0.5276176770933827,0.5976055992980811,-5.16028282641137,0.02111491599640436,-0.30550123644790794,-5.016254512253976,16.371697869350673,-69.26638962716194,-4.952324939653613,1.8692765318249196,-113.19927924396815,-4.17210868985964,-1.4147214984307845,-58.998616209300884,-23.309599052758777,17.70522936289825,-5.847499401549308,8.193765942662079,2.4196717131548366,-71.80486586597462,-6.825884879309044,7.8202648424738435,-101.84092994191431,-1.677879332703643,-4.8977320113386575,-44.880372715296026
40.946139657949686,-64.08930660230041,-30.760499428554652,30.228063619493955,-4.24808296242062,-15.23089248275278,-7.121806257172327,7.34706446353502,-42.49677353474412,6.0318989306094775,-5.654222245497672,-48.72202572203306,4.864742851951179,2.5684687940793953,-57.717158689897815,-2.920614339529743,0.7968964914225877,-108.87284574820808,-1.0777773240915454,2.562097959999244,-61.14798018981302,-0.4625597521960977,9.25026655496302,-40.64920746926491,-1.3214311756213135,0.5276176770933827,-6.898726984242341,-5.406174602697444,0.16046536883041285,-5.458480184498907,-5.019296614258924,16.47910845460906,-64.78109961731607,-4.908268790326493,1.8086342171064667,-108.8711380619656,-4.049397446001972,-1.501443715034163,-58.43198612043722,-23.309599052758777,17.70522936289825,-5.847499401549308,8.266164195231198,2.7779504913932422,-66.9179306712336,-6.749465916157116,7.702720289111963,-103.23988258997888,-1.6061124280298562,-4.935122946749328,-47.372536817996846
40.69819098506689,-64.00656988419941,-30.231935933655418,30.25793002829269,-3.801212987094494,-15.01746001162814,-7.162203314802921,7.364078132044773,-42.47332327155544,6.160470030767935,-5.650642533030513,-47.96238533859072,4.84332383195483,2.26565947997006,-56.8494624588165,-2.920614339529743,0.7968964914225877,-106.91355095701024,-1.0787148167569285,2.5593324771980615,-60.58370263854212,-0.4630426577281052,9.148584201466662,-40.29013653997404,-1.3214311756213135,0.5276176770933827,-5.590149751910062,-5.3540690200053325,0.12201728797193945,-4.786601440874675,-5.020237593877375,16.60251393433003,-64.27324468795875,-4.887651047810429,1.771283748557485,-107.07667181803745,-3.9849117924140103,-1.535020926713169,-56.78224566032807,-23.309599052758777,17.70522936289825,-5.847499401549308,8.317526628087121,2.9242508536816523,-65.37075689448534,-6.725525761711965,7.653329109064185,-100.57464479876697,-1.579658780110291,-4.946738497244126,-45.58226691204893
40.08214707682547,-63.63087006693102,-28.56159884543134,30.297920271877317,-3.7068197780751047,-14.83376857309759,-7.172874511543893,7.353755084271845,-42.70253894270634,6.3024761251427535,-5.757188161506638,-46.02077915123208,4.873233388572392,2.6183548789636193,-58.86301367221016,-2.920614339529743,0.7968964914225877,-111.02498429591563,-1.0748853509214737,2.5562604423989486,-62.793790927327954,-0.46315261221924553,9.017669117857547,-40.45243878628901,-1.3214311756213135,0.5276176770933827,-11.87347150607419,-5.415275070100229,0.17213556762890825,-7.945682404912035,-5.022129331117369,16.449767789896246,-64.39829175446275,-4.8837574170369376,1.7652924080880141,-109.41029378232655,-3.9891708211281367,-1.5659160088283621,-57.54561607534705,-23.309599052758777,17.70522936289825,-5.847499401549308,8.324863052681117,3.792601761567446,-62.88993677447886,-6.710292806434987,7.633141491841933,-100.76076581675747,-1.556077984075761,-4.976920891473828,-45.34098002663666
40.939735852530625,-64.0055498007017,-30.22060470199243,30.247244654035548,-3.9043191955870156,-15.027966073380522,-7.186609264693767,7.347435467774453,-41.991180859744674,6.227357470871656,-5.6948814298319315,-45.17945031351359,4.904453738606029,2.5349323145810825,-58.876447171508,-2.920614339529743,0.7968964914225877,-109.40361950401939,-1.0689187897611343,2.5532841828040045,-61.39967450302696,-0.4625491250266274,9.328136917514158,-41.09080340097141,-1.3214311756213135,0.5276176770933827,-5.184479096464667,-5.498354865223887,0.2274656423013141,-3.417969694454765,-5.01858543187966,16.508615008119296,-67.15806495677698,-4.932018689158527,1.841224309427323,-109.08494281538401,-4.097107970851446,-1.4542476871983172,-57.02107337724871,-23.309599052758777,17.70522936289825,-5.847499401549308,8.205572927599656,2.617138120827197,-68.428847294682,-6.809173804048914,7.821455055584808,-103.86117511220435,-1.7000327493271816,-4.889406172889547,-47.235689985662646
41.22383188828406,-64.41629366423464,-31.47363088464626,30.2108767274817,-4.357457397284547,-15.28328093387958,-7.11887639955988,7.337034241449323,-43.59652789352366,6.153784100238125,-5.714632538765795,-47.321365099687156,4.9538992845577905,2.9752121975220818,-61.003142294234955,-2.920614339529743,0.7968964914225877,-114.69905964064608,-1.0545242744638204,2.5544550646311035,-63.29060329947813,-0.462041381334396,9.436812377300807,-43.581063750749806,-1.3214311756213135,0.5276176770933827,-14.266898427335379,-5.618496028460678,0.2680676176815828,-7.986471327689642,-5.0186727029352705,16.424297659317443,-69.2630456961617,-4.9513822030140044,1.870995456109239,-114.92022279690259,-4.183520348017093,-1.4762308035966487,-58.963075780307534,-23.309599052758777,17.70522936289825,-5.847499401549308,8.256708164210277,2.8453552387497307,-68.06913402521711,-6.7425635386406775,7.714123414721048,-102.72959165594568,-1.6559335780737376,-4.929136674041774,-46.87842091288341
37.756106185113374,-62.91287786943969,-22.031578560612346,30.228793765600148,-3.67303294982803,-15.161298168106233,-7.764507591408909,7.5556055165052225,-28.724413363840448,6.619118745923087,-5.841931764485081,-43.468890501219754,4.546487395115307,4.530463038454489,-40.4989294773595,-2.920614339529743,0.7968964914225877,-94.69622924234972,-1.1535382816534252,2.6092292282086906,-54.54179077579528,-0.4586570790006773,9.919397455283018,-42.88231460099138,-1.3214311756213135,0.5276176770933827,-32.44495699175758,-6.362958987891013,0.7268418936713213,-16.108577438332542,-5.033800302377414,16.342957570532572,-60.37842134476592,-4.83264717596999,1.639030824796245,-102.58578674734827,-3.652308632785597,-1.7293145926079607,-54.16179371893008,-23.309599052758777,17.70522936289825,-5.847499401549308,8.577132566114535,4.31012212523367,-61.026707244172094,-6.437997629808033,7.462959623931747,-96.51605538013303,-1.6249771270294036,-4.926356263689809,-49.382273634712476
33.340620079364214,-61.479174687913485,-8.587687123068338,30.496704294140837,-2.2575665146933814,-14.026634042291052,-8.480257848307492,7.869393428224802,-15.960677029166325,8.751841946270634,-6.534915905641015,-16.204005738627934,4.107421522788694,3.485346551878347,-22.6882580447105,-2.920614339529743,0.7968964914225877,-51.50900805358015,-1.5392417236277298,2.8167079077623964,-27.411551009531692,-0.4615430069064766,9.170693967367095,-18.222232741577606,-1.3214311756213135,0.5276176770933827,-31.562692385819712,-6.0604359372126355,0.5322674707397209,-19.616355716881273,-5.073895520043412,16.480287308513592,-24.7712707510619,-4.347803626850414,0.8805596912257734,-47.115479633451294,-2.0504157206547178,-2.7673875174819274,-26.282744262992285,-23.309599052758777,17.70522936289825,-5.847499401549308,9.966876674529122,12.34299906046293,-13.35596155482677,-5.521042947439387,5.8282484250908695,-48.36308692930824,-0.7838496035131877,-5.3236532553027205,-26.623207551948646
32.94777656651477,-61.281405473066044,-7.1667843235734665,30.756981949126754,0.9913283840992002,-12.441358304354186,-8.635874741196487,7.938601205445687,-15.347322957527002,9.953800255186762,-6.755595045639532,3.6944156493202818,4.062621328081331,3.9706762579118933,-18.96324101980101,-2.920614339529743,0.7968964914225877,-33.74973989719119,-1.7048688495477329,2.903573368392888,-15.303293379440307,-0.4623732887598399,9.320040227221305,-17.183229627265035,-1.3214311756213135,0.5276176770933827,-19.52231243407595,-5.852545241921642,0.4224640167959849,-11.091225870358443,-5.076841365566588,16.636511416300973,-21.467620782522058,-4.216903068417287,0.6931032008125197,-30.86876976654266,-1.6386643411194042,-3.0531642931046603,-16.473449335846098,-23.309599052758777,17.70522936289825,-5.847499401549308,10.141568035903644,12.849377416867618,-8.14045372211265,-5.25065040219959,5.537169567091344,-31.196378345689208,-0.5293062666357687,-5.4248060753526275,-16.214430296331187
32.528420850937984,-61.238111316763366,-4.926166915661161,30.759162988658172,0.6630154637273411,-12.545462929798346,-8.723542356809576,7.956115991316471,-13.655057745356922,10.213834150006381,-6.810813326197707,7.037419532997831,4.017093334507659,3.715879533211171,-16.895338218576416,-2.920614339529743,0.7968964914225877,-30.85490308216852,-1.7194462751308817,2.9158321407337398,-15.459658927516596,-0.4628403064778408,9.091652919167373,-17.309179232189692,-1.3214311756213135,0.5276176770933827,-17.774821674757817,-5.801047685228158,0.38427381331194366,-9.900175126897707,-5.076640897543523,16.608561837279513,-19.82026767469368,-4.196554532312728,0.6582619210590626,-23.896877711015854,-1.5794102390128508,-3.066429133040066,-13.481036051169866,-23.309599052758777,17.70522936289825,-5.847499401549308,10.196779900535011,14.019986857993704,-5.937163099162962,-5.323448811580554,5.493708702711992,-26.429549954962408,-0.5607915136045719,-5.424114721071813,-14.199030589161362
32.226001040009486,-60.993073392080575,-4.569620578294282,30.910677832515287,2.6029680392416843,-11.612148330663379,-8.66904138598592,7.975784980864424,-14.47107979901629,10.301240603354495,-6.820427960233216,9.231852283916977,3.982627405258411,3.2798484158024497,-14.895326143870252,-2.920614339529743,0.7968964914225877,-22.068205181278287,-1.7773269972615662,2.931172972707447,-8.676100322664865,-0.46547385579639244,8.982413523904418,-14.752532378537541,-1.3214311756213135,0.5276176770933827,-12.984473201340231,-5.551944074284489,0.19610273634997205,-7.07707404273081,-5.075970549586289,16.611943668203185,-15.108485733898101,-4.108535207732654,0.48204472329468395,-16.48475402170261,-1.3560684757250336,-3.2214230891597437,-11.109760312724807,-23.309599052758777,17.70522936289825,-5.847499401549308,10.409281801381882,13.521157052547682,1.7186712833363984,-5.128599107097851,5.092834775941365,-16.499553560789288,-0.2668426366116057,-5.534584989075728,-6.662237783682381
32.04065963731647,-60.832106078367204,-4.499277261322694,30.913755992709763,3.3067978115622627,-11.524319520125621,-8.652506920053781,7.988252319140704,-12.752667234126358,10.63727469468749,-6.826082172265029,13.479275892547616,3.891287965270976,2.892141335141836,-8.30042040506489,-2.920614339529743,0.7968964914225877,-9.866575382388852,-1.816022265519831,2.9391162509543047,-1.847388173923159,-0.46705145990986635,8.921872442342913,-11.937108115547614,-1.3214311756213135,0.5276176770933827,-7.698490140767632,-5.386046044322719,0.10912678526420705,-5.372026809191393,-5.076037726697493,16.487596433154835,-9.784672183852734,-4.061816677256064,0.39073613594397943,-7.4842205109453275,-1.1982041055318415,-3.2724325160988914,-8.43140787492155,-23.309599052758777,17.70522936289825,-5.847499401549308,10.49052489903921,11.979525312470633,3.6205609984105305,-5.048291553309837,5.002943111612492,-11.746281980474397,-0.21732962811491002,-5.5519597940122125,-6.1187970273484265
33.00148856390318,-61.27175145536891,-6.8398289842049,30.79421508155893,2.636273283275581,-12.057136022074035,-8.54581333337593,7.916576326384918,-13.61686797965093,10.165862719900744,-6.6259362824973245,9.314453326403719,4.097665268327373,3.498965700037818,-12.598508150437084,-2.920614339529743,0.7968964914225877,-17.535522487601995,-1.738498938663558,2.8891427605808655,-6.958314785125231,-0.4665335689625754,9.466986025424383,-17.77919127828997,-1.3214311756213135,0.5276176770933827,-17.777038305422057,-5.710245012420941,0.3028110589344432,-9.106668834979013,-5.0655015604300555,16.540287967250386,-14.798938369581386,-4.110739918373663,0.5161013424870395,-14.63332738295604,-1.4902296025035031,-3.1024703492516905,-12.63658734891857,-23.309599052758777,17.70522936289825,-5.847499401549308,10.334138282967263,10.151988877152869,-2.391819888056375,-5.042726744851912,5.158081358530486,-12.952784696527559,-0.21965988304789788,-5.524701264982336,-5.960076862959598
32.45025088023888,-60.87400283620606,-5.34865656736398,30.924396749383085,3.2493781644264854,-11.460546890494149,-8.609345607178389,7.976682839696086,-13.244693985502229,10.597290878901966,-6.820862852143357,14.03951046000461,3.9536291774015355,2.6902827982064186,-10.75610644078247,-2.920614339529743,0.7968964914225877,-10.011586952272491,-1.8153774249888057,2.9382508671454306,-1.4678103869963923,-0.46670259090507943,8.9511726088332,-14.1187751005638,-1.3214311756213135,0.5276176770933827,-6.3040841872846585,-5.380608490394746,0.10685763626846945,-4.236374972217023,-5.068671603953851,16.89296521650025,-11.489426625383684,-4.062624393596715,0.3905176162203196,-6.720684598349909,-1.2722823683789524,-3.272126386658281,-8.83027176043454,-23.309599052758777,17.70522936289825,-5.847499401549308,10.413858275768037,12.157413065834758,1.5843476285648919,-4.994097450171996,5.015147917385369,-12.005968774977902,-0.16328257056912582,-5.566343666763731,-4.625002298581057
32.55991564904722,-60.922811883987706,-5.691884388445927,30.96518352728009,3.930964700083799,-11.120111744739594,-8.689016240153661,7.986064588948936,-12.587788131936977,10.645553028918368,-6.810874809243479,14.980711719545031,3.9540530785830463,3.026612080869146,-12.228078240162782,-2.920614339529743,0.7968964914225877,-10.607443721775077,-1.844466748646283,2.94643364329543,0.1302062633472172,-0.4665926318104435,9.295161587283248,-16.714436366437177,-1.3214311756213135,0.5276176770933827,-9.071622685847844,-5.365354587686358,0.1022682193075446,-4.738047111670296,-5.066002766033664,16.920983344409482,-14.330986921899147,-4.06535204057641,0.395476522799626,-8.447343668520617,-1.281100738501389,-3.2585359880586227,-9.426452351308013,-23.309599052758777,17.70522936289825,-5.847499401549308,10.389207868092662,11.577744486194103,-1.4640875895425491,-4.948018569371374,5.00234777178904,-11.620314103690948,-0.15586605972852846,-5.572120297399243,-4.5703318337876855
32.73440473344912,-60.95115465904629,-6.391209958758615,30.93973973503028,3.6606513714594437,-11.298851391339904,-8.652920277956099,7.9770589069834035,-13.12491500631197,10.617063975555906,-6.816668123240462,14.692678011743247,3.958663069184976,2.8404958520718258,-12.034590239163709,-2.920614339529743,0.7968964914225877,-10.181098879469769,-1.836339607040178,2.9414264201142535,0.4748271120399803,-0.46650383728658507,9.279497276900242,-15.75925338688467,-1.3214311756213135,0.5276176770933827,-5.568064765020566,-5.371713638073036,0.10445332194214424,-3.424527319643234,-5.0659799795058715,16.928285467599462,-13.825747821369987,-4.065868774395638,0.3959336769852708,-7.171138702790682,-1.2860405194932154,-3.251517115814744,-8.485534670085839,-23.309599052758777,17.70522936289825,-5.847499401549308,10.403849011853044,11.60144643773057,-0.540089199881546,-4.956270148359419,4.998268340296664,-10.08609456950433,-0.15297661108045368,-5.573090862899376,-3.2154403170410237
32.68961827813177,-60.922081200011355,-5.9415877255816945,30.96436968794584,3.7631445381612676,-11.203328539404502,-8.610442939257592,7.967314324509929,-14.059312799812975,10.585390341919544,-6.804014541017736,13.67166217406741,3.9595324505791627,2.8412463729159803,-12.342941277337586,-2.920614339529743,0.7968964914225877,-10.502654619179989,-1.8278022203016204,2.942214511477123,-0.2634443663423127,-0.46651856386883994,9.223723504475371,-16.22099047549534,-1.3214311756213135,0.5276176770933827,-5.890774341709729,-5.376366739227,0.10536571019593499,-3.617454799530204,-5.065612954060723,16.93976125654442,-14.161540861406655,-4.069046536000722,0.39850109156696994,-7.7779790328486875,-1.2996658904297687,-3.2556324629850484,-8.797638049260414,-23.309599052758777,17.70522936289825,-5.847499401549308,10.377486845730042,11.528289236966517,-0.506737093792907,-4.976218841680666,5.002652568408966,-11.712955569174884,-0.14736472915360393,-5.573233844542208,-3.903426231982495
32.88330681648456,-60.96913929815644,-6.50553531004939,30.972972194353666,3.7934612669606134,-11.163362033973142,-8.54803414980676,7.9504200413007915,-15.667917351514637,10.603040917068501,-6.8140964292239925,13.31208513808577,3.9569148114120916,2.911141796197866,-12.804358468682155,-2.920614339529743,0.7968964914225877,-11.225224133093654,-1.8333031061164022,2.9435273598986478,-0.4963374807860408,-0.46633336063948816,9.248071848927863,-16.95396497223235,-1.3214311756213135,0.5276176770933827,-7.027878468213668,-5.380376528640532,0.1015846834591671,-4.3275848962836,-5.065530698872528,16.89628307923585,-14.912086852762528,-4.0732626269692105,0.4039063780145677,-7.9584159339082845,-1.3047680665483345,-3.244711411510158,-9.171183936165654,-23.309599052758777,17.70522936289825,-5.847499401549308,10.38970338391794,11.426959481703719,-0.40665660849403906,-4.974082085472289,4.992306862750295,-10.832599473169495,-0.15478130275171514,-5.572187913903635,-3.98139245375822
33.11799002909219,-61.01330399465669,-7.300453830122022,30.9248898308836,3.644619716689129,-11.369382146594049,-8.580185439324874,7.9552500107317,-14.796853856471646,10.66741397740061,-6.820328015465032,14.309317243019954,3.9911594850166408,2.9041072252372775,-13.106625446125857,-2.920614339529743,0.7968964914225877,-10.807948768988389,-1.840338269898565,2.9436368628253793,0.4847191891637994,-0.4660554568203062,9.421585717071153,-17.088982255838204,-1.3214311756213135,0.5276176770933827,-6.524448556513821,-5.384622696071275,0.10035038009505004,-3.417786538886263,-5.066892362055661,16.749015770575927,-14.884827624060712,-4.075250014973008,0.40438020933930097,-7.559262690564527,-1.3144698325422495,-3.244330321759007,-8.78181498696623,-23.309599052758777,17.70522936289825,-5.847499401549308,10.36864430141828,10.80969420625699,-0.33825910739551013,-4.988953437799213,4.9955050546802875,-10.320594936269291,-0.14275186310412996,-5.5727544074725754,-3.2694816002457454
33.18307189948369,-61.040169896593056,-7.229637623483731,30.923083567811517,3.801385200306898,-11.3672108058623,-8.56476239957795,7.952577300640282,-14.300706278192422,10.660098515990414,-6.809596458341962,14.192876032846844,3.96891094948491,3.228003974961613,-11.231890336104874,-2.920614339529743,0.7968964914225877,-9.510702330468728,-1.8547479043265296,2.9483676917328174,2.761058349456235,-0.4662315635424571,9.497501822753394,-15.271322779894154,-1.3214311756213135,0.5276176770933827,-7.144460212843207,-5.376236759731936,0.09620783588128629,-3.32159747400722,-5.066218409014663,16.75751664544914,-13.81360760330593,-4.071674148327615,0.39766784619062806,-6.224288772215591,-1.2872411516608295,-3.2558900655993925,-7.48978089567308,-23.309599052758777,17.70522936289825,-5.847499401549308,10.380007006889468,10.589089655156847,0.20938388006876352,-4.9655396761131625,4.973460988945955,-7.940230098145811,-0.1320005777419631,-5.5751334743938505,-2.6250602706832105
33.44043327612741,-61.13146297764573,-8.721102219803722,30.931205196619384,3.7985899913677965,-11.397679725763044,-8.557462896578,7.949444775322251,-15.215520751337701,10.655030621219199,-6.820201277981768,14.380017667935757,4.025764528671175,3.359665622047241,-13.163797452227069,-2.920614339529743,0.7968964914225877,-9.691514411471474,-1.838275329578693,2.9435560135883527,2.458874117025763,-0.4661576037829988,9.537446339623157,-17.772825118044587,-1.3214311756213135,0.5276176770933827,-7.161280606645686,-5.387309887455298,0.09019518996303844,-3.323195720749135,-5.064156468024492,16.723348161222333,-14.803324121956503,-4.087822135802853,0.42751606037196943,-6.925281205750803,-1.3542847250863312,-3.2222894309033,-8.665465017636501,-23.309599052758777,17.70522936289825,-5.847499401549308,10.368755427502178,10.062884081976335,-0.5262792251602786,-4.9823092460530765,4.984724752542595,-8.699068557500087,-0.1382445064828774,-5.576397089184798,-2.987536971920326
33.448449181779715,-61.15972306427106,-8.189794384861043,30.928969295307056,3.8862837141160487,-11.338362241753162,-8.516597056559537,7.946322241087836,-15.627003431055154,10.533164679409536,-6.827112611202239,13.037885408826504,4.02533302833737,3.538340212426688,-13.707780240875817,-2.920614339529743,0.7968964914225877,-10.268725426692757,-1.8454351313173951,2.9483130195879053,2.4361944408946687,-0.4663473322484733,9.778137002277013,-18.371964896239575,-1.3214311756213135,0.5276176770933827,-7.435396319400297,-5.396871068324024,0.09400567331763637,-3.4867384116397773,-5.0636261879061735,16.818023989142997,-15.84782869434653,-4.0780417438808785,0.41475098216137174,-8.186973350059656,-1.3461604060133059,-3.2348225296755673,-8.480839609163288,-23.309599052758777,17.70522936289825,-5.847499401549308,10.364569921294189,9.955327423691138,-3.037165406254763,-4.993631544186232,4.983107325566062,-10.501821907875119,-0.13877171507179287,-5.58033558252698,-2.632847877813372
33.452061953047796,-61.15783101350126,-8.576522630652757,30.895659404393566,3.5359820902950183,-11.567989196931789,-8.552376544237442,7.9557997321614415,-15.246423864581386,10.55897384595238,-6.844099033857905,13.602127744277272,4.044158443366014,3.4260409804031315,-14.591984777563514,-2.920614339529743,0.7968964914225877,-11.404300086256825,-1.8356301489473763,2.9459122918757776,1.508966697249667,-0.46653237435548095,9.743259502359928,-18.840215450723484,-1.3214311756213135,0.5276176770933827,-7.518359815621327,-5.3828660684236365,0.08985331216085962,-3.5320300588560336,-5.064231379208501,16.772388546547422,-15.918468689982333,-4.081804064308694,0.4191648577575795,-8.657925594119764,-1.3634474626043924,-3.219446655046746,-9.353318274734729,-23.309599052758777,17.70522936289825,-5.847499401549308,10.364293040297703,9.73632956605663,-3.532327304259727,-5.009855841768808,5.005126623277656,-11.782879524528806,-0.1516311055029776,-5.57408257716339,-3.633935087603838
33.09339372574478,-61.03281401875502,-6.978464866214512,30.908757980244157,3.529266734287579,-11.503439316752399,-8.58158632462481,7.959882884638519,-15.092620766679136,10.530152691416994,-6.834679594862815,12.629333649215354,3.9948021096566575,3.2771704915867033,-13.659456682645185,-2.920614339529743,0.7968964914225877,-10.819988089156542,-1.848985805571067,2.946902535582069,1.3350784584278443,-0.4661178525989504,9.81580734374148,-18.00685007824962,-1.3214311756213135,0.5276176770933827,-6.606714856364157,-5.354383318215131,0.08304039389599105,-2.9720336411888706,-5.062301046093501,16.976763036420245,-15.295619853540153,-4.078560655256199,0.41240647430755856,-6.979152862243083,-1.3528096448761415,-3.2204174289468805,-8.541614565182314,-23.309599052758777,17.70522936289825,-5.847499401549308,10.337921526035206,10.0932868284636,-3.5499389591906976,-5.0053972499105805,5.021923407455081,-11.452955158725228,-0.1762416127157015,-5.567032505172777,-3.361390205441902
33.38123336355196,-61.06998494194789,-7.971702794321398,30.907237500092204,3.4583847261203946,-11.527459799521589,-8.547208837753068,7.951392969767922,-15.44846865167977,10.538716165570243,-6.836887072854106,13.365583114200351,3.9952994014401924,3.1160580735488344,-13.391167801432445,-2.920614339529743,0.7968964914225877,-10.576362568964576,-1.846895079672636,2.9445702191184586,2.0466143626894038,-0.46644872884139177,9.650795226113813,-17.394074588161367,-1.3214311756213135,0.5276176770933827,-4.526883847915666,-5.366349261623062,0.08964195081403137,-2.0968720082860077,-5.063479789056106,16.930536670363644,-14.75466306484338,-4.077264789700702,0.405952490572616,-5.663736643058449,-1.3387093553700575,-3.227155045851378,-8.168281452350827,-23.309599052758777,17.70522936289825,-5.847499401549308,10.401616278412837,10.49744878332292,-1.4156152142356024,-4.987977897834272,4.979212308631186,-9.490918411525644,-0.16152895607744316,-5.571450813703867,-3.0518019379154957
33.33859251871534,-61.07354741771697,-7.583629398777225,30.938952725735703,3.7880253648379663,-11.322690587165015,-8.5449700542576,7.948645867064199,-15.580809438663596,10.519100937741369,-6.8361921422999625,13.19196138234814,3.9877837614016296,3.356419217184117,-13.835461605549657,-2.920614339529743,0.7968964914225877,-11.891775683593533,-1.8486428822655658,2.946306972753241,1.1382955214607602,-0.46608493070054596,9.727958102420438,-18.79410460607802,-1.3214311756213135,0.5276176770933827,-7.778357031331996,-5.388045463960326,0.1013595192745061,-3.7971616097388754,-5.062919823080818,16.947884704011607,-16.416195462512434,-4.077341348577163,0.40747057186645136,-7.953996582660185,-1.332960470747416,-3.2402883199554227,-9.09105779669748,-23.309599052758777,17.70522936289825,-5.847499401549308,10.369211528192139,10.309930070956543,-3.4161826537724167,-4.981964621434825,4.9833945966000925,-11.967518602953973,-0.15329423513573354,-5.57280055493041,-4.030906552895445
33.510005329050706,-61.073467280046664,-8.470807263866046,30.972121425534105,4.139600855912613,-11.113714196766512,-8.561546804910611,7.953814940413338,-15.23803889994364,10.588534891564713,-6.8396320610456165,14.408740837882913,4.002683859245823,3.2511735507414627,-13.892047218221617,-2.920614339529743,0.7968964914225877,-9.959080801676503,-1.8509832313011159,2.9471635310878828,2.288073026241735,-0.466240975389103,9.575525276186317,-18.2242926753286,-1.3214311756213135,0.5276176770933827,-6.973544540479683,-5.373294889141863,0.09488816770165132,-3.174089311846238,-5.0634753580736,16.911614175898748,-16.04431364624979,-4.0752727852596085,0.40391232910901276,-7.1689407123696505,-1.3256641431952907,-3.245240951845925,-8.777700616717441,-23.309599052758777,17.70522936289825,-5.847499401549308,10.365260552585555,10.433728989866768,-2.422262236741222,-4.9822331256422165,4.986060216710625,-11.2061055515552,-0.1479301878662787,-5.573880494637867,-3.6008202428741445
33.565991103663954,-61.14160977048146,-8.31411528681948,30.973029292382954,4.366767324431833,-11.024316070004165,-8.525273473035574,7.94203731717384,-15.800981762322913,10.52231869548308,-6.828884966846911,13.89354189503771,4.017381309878654,3.237549650046723,-14.710340249231038,-2.920614339529743,0.7968964914225877,-12.088395516303944,-1.8486803176619617,2.9474649623901072,0.9784042069326482,-0.4662749123582755,9.584087956103287,-18.43452184737549,-1.3214311756213135,0.5276176770933827,-6.90031912672541,-5.387303696355891,0.10001984157270127,-3.479097154228729,-5.064951590612406,16.685665664252085,-16.49570597068241,-4.076719068017372,0.40380798898885784,-7.897854585435056,-1.3408494283483725,-3.2411081598138103,-9.597954919326876,-23.309599052758777,17.70522936289825,-5.847499401549308,10.358438048701009,9.968415846553434,-3.9364154246007566,-4.983195661936131,4.97931312330472,-11.305173494821606,-0.12633781289159557,-5.579729516978852,-3.56586292148649
33.44769382062481,-61.09594290281239,-8.25372008284213,31.047702253920686,5.375950145528508,-10.47294181685609,-8.509538145448836,7.941572140927194,-16.29478475392527,10.558367903213574,-6.807487214495296,13.394185781040147,3.9975334119059593,3.609097520097922,-13.726535840883386,-2.920614339529743,0.7968964914225877,-11.017056507199264,-1.848530811498809,2.9459312488878964,1.717780491630954,-0.46601631790116554,9.595339153992292,-18.759417164040023,-1.3214311756213135,0.5276176770933827,-7.4515357878883925,-5.372415885507195,0.09102027774885768,-3.7635143542078637,-5.064083969266169,16.816407664541178,-16.742478933176645,-4.076221219676867,0.4092366937297386,-8.947882975518645,-1.3358239124317508,-3.2349066010964838,-9.230301717668384,-23.309599052758777,17.70522936289825,-5.847499401549308,10.331617110895213,9.851148978697866,-4.602649518140627,-5.001256853284053,4.999003875022623,-12.275314463403472,-0.12506188665523588,-5.5814046239174475,-3.3096641341957582
33.37550418646026,-61.071394957600624,-8.00332685570353,30.9773160729454,4.146895854850141,-11.086935393798216,-8.622784209665287,7.95592642156993,-15.03341986118765,10.59591196568065,-6.804950384897399,14.770113369890975,4.046296447607045,3.6057211879725206,-16.079440944219755,-2.920614339529743,0.7968964914225877,-11.3831662887991,-1.843828158473711,2.9480022442346034,0.17388342571802262,-0.46562546041349434,9.619671529826213,-20.162089947310434,-1.3214311756213135,0.5276176770933827,-8.72695098195155,-5.393174236391115,0.10631101911569374,-4.394784799392047,-5.06656426499754,16.509481542473623,-17.194698259016572,-4.07568581344057,0.4108209096239873,-9.0102262359994,-1.361357949775957,-3.23074018807936,-10.543472353584752,-23.309599052758777,17.70522936289825,-5.847499401549308,10.321794375044949,9.403934470461767,-4.339940520108172,-4.978190279724158,5.004121229146224,-11.736570012676005,-0.13794409900424676,-5.578345447617783,-3.8325398189216475
33.363005676547544,-61.08522315328793,-7.769438950675239,30.96465089119881,4.068453509752986,-11.183164040309387,-8.579410956062484,7.955971874336426,-14.942934962039441,10.526713551710635,-6.837055803820931,13.860209663410963,4.0293126438320375,3.2445487195833675,-15.137423646325493,-2.920614339529743,0.7968964914225877,-10.271011727750903,-1.8413107838336942,2.947895678217182,0.8293519977500878,-0.46622169825149984,9.62125342714432,-19.168217989006415,-1.3214311756213135,0.5276176770933827,-7.349679120722723,-5.3902219043695725,0.10691947032083854,-3.9010210446137137,-5.065526639970784,16.64115310814872,-16.593607151886857,-4.073109632834829,0.40387769572369137,-8.068202371721071,-1.3478281004384591,-3.24417496030004,-9.986578082464172,-23.309599052758777,17.70522936289825,-5.847499401549308,10.337108032387395,9.607594052122238,-5.078708097405771,-5.000459405518626,5.008614044458669,-12.724779866360965,-0.1461780023729558,-5.57505186088089,-4.136760012867651
33.22523559442355,-61.07500638499429,-7.342006530513217,30.953416869732145,3.9447667394097268,-11.237072732415696,-8.546949507746838,7.951102571469791,-15.650188140369536,10.573480240259162,-6.829272371023234,13.674341319915978,4.035363076225022,3.2585932657799836,-14.99242157558028,-2.920614339529743,0.7968964914225877,-10.776578180421243,-1.8451745158464645,2.9493212356569414,0.5922198475380878,-0.46627779184474016,9.450268102828462,-18.39594049177534,-1.3214311756213135,0.5276176770933827,-6.39584136512028,-5.3603719698572,0.08747629953747493,-3.4586110118135487,-5.066718748331688,16.56632048598139,-15.62988034019387,-4.076751721944276,0.40926148562334175,-7.300607355699327,-1.350626122810917,-3.2298781765211486,-9.278294489587369,-23.309599052758777,17.70522936289825,-5.847499401549308,10.331581673479334,9.947883285197648,-3.6879170506930787,-5.010230957865343,5.017109125498922,-11.750271508338734,-0.1537274590456068,-5.572254256352182,-4.004031816380282
33.52595553754528,-61.122441271768515,-8.682731288620236,30.982919377519693,4.244861377686156,-11.060976446619257,-8.556595510644424,7.949865348874229,-15.631016270616987,10.55784676520875,-6.8464561705173805,13.950496703030804,4.05510664953674,3.3391280804353958,-16.60561329325212,-2.920614339529743,0.7968964914225877,-12.83082904249271,-1.8426528535024262,2.948773649021082,-0.146132705148748,-0.4659131811869303,9.502224562568223,-20.109498286814425,-1.3214311756213135,0.5276176770933827,-8.817934727147243,-5.388005618187524,0.10359668832477004,-4.858946475599765,-5.067067910543151,16.4333726820839,-17.26508386958793,-4.0814959732938885,0.4179542666329378,-9.547222181416437,-1.3756356083083512,-3.225841290574726,-11.385428570711623,-23.309599052758777,17.70522936289825,-5.847499401549308,10.311941916514819,9.464178414658416,-4.962271262855868,-5.021597769813071,5.015860549344748,-13.139300542874343,-0.14140512221196172,-5.577579003972329,-4.44306118549591
33.39220150104557,-61.107380432350915,-7.966559285251861,30.948261834077485,4.01024427923471,-11.247527824998635,-8.508178209901365,7.943010182868332,-16.248676619100884,10.44679003912232,-6.8481662181462815,11.792312836091302,4.018150692626657,3.2663162480283066,-14.606681441947387,-2.920614339529743,0.7968964914225877,-12.195068549628076,-1.8356295418482584,2.9462693545106076,0.19517382233166636,-0.46639775203345196,9.504390084205756,-18.113801317188745,-1.3214311756213135,0.5276176770933827,-6.208826674692492,-5.37908627170482,0.09487737114854755,-3.1399295666522953,-5.068317565854533,16.501330622510782,-15.58535197883899,-4.080559869778041,0.4113733077701071,-7.8637577647200985,-1.355060436650442,-3.225475332829472,-9.320444561601875,-23.309599052758777,17.70522936289825,-5.847499401549308,10.356698599578554,9.76170887085754,-3.5071216864907964,-5.019491471426271,4.9987185113289385,-11.579550798856104,-0.15110669818826045,-5.57376412857844,-3.787223250285777
33.19726157500554,-61.059910503902444,-7.502876773558414,30.982374009283806,4.267003096492877,-11.039199024024374,-8.448833213858553,7.922381864850103,-17.438700877558013,10.515579131948671,-6.820749283651394,12.743827049119954,4.0332661622883075,3.572678062985263,-15.759891681672997,-2.920614339529743,0.7968964914225877,-13.85394539733732,-1.841881629692042,2.947876392347425,0.07578463731356244,-0.4659296547957453,9.469201512688644,-19.169417122893353,-1.3214311756213135,0.5276176770933827,-8.119282244713474,-5.3862334052246785,0.09800372319654954,-4.505581422259322,-5.065917403747262,16.659908568083047,-16.989721085752837,-4.078887661122188,0.412125690203536,-9.54132886728793,-1.3452368029155473,-3.2312076802089407,-9.728560315218477,-23.309599052758777,17.70522936289825,-5.847499401549308,10.348380338124517,10.220480874871908,-2.780476940999124,-4.985515815311778,4.981187419161279,-12.299372228423472,-0.13281045467319286,-5.580898322656051,-4.006814468970791
33.28920113926639,-61.06097877576134,-7.544585249979388,30.994917407326568,4.477594614362554,-10.95502108153411,-8.504723212287184,7.935585864220036,-16.463046586475187,10.547260053157682,-6.806012218885073,13.315039943835579,4.0245869387346485,3.3872408254388393,-15.1739735910769,-2.920614339529743,0.7968964914225877,-13.803092138521805,-1.8438657724027334,2.9445272749974696,0.39160216292050265,-0.4658637971884497,9.528103436189982,-19.005706554101792,-1.3214311756213135,0.5276176770933827,-6.546180471415546,-5.3973991520682665,0.10544016451269844,-3.5509305172518015,-5.063795138474729,16.761954923623616,-16.85856553831165,-4.08329593341292,0.41583056237501437,-8.646331008243319,-1.3622539766066657,-3.2179873684261624,-9.122448271361332,-23.309599052758777,17.70522936289825,-5.847499401549308,10.353144250476776,10.164461825085723,-2.5711070214293628,-4.990409066744132,4.982541646427696,-10.755926591320282,-0.12679218287452482,-5.580081171588185,-3.127513766264787
33.216414061683366,-61.03251712654294,-7.333496616044512,30.987321888402885,4.243009155176576,-10.997939423291607,-8.45700757004399,7.92663664348937,-16.942223593734944,10.48316121297025,-6.815333879311485,12.56870065332728,4.036842124161972,3.192074536905837,-15.798893463760633,-2.920614339529743,0.7968964914225877,-12.559766249134686,-1.8305386771167151,2.946426870546789,-0.595969904857137,-0.46581748141975127,9.403311627273693,-19.478359686001323,-1.3214311756213135,0.5276176770933827,-6.3442326677883045,-5.400180225171447,0.11022753660827828,-3.7338669692684174,-5.067094611626369,16.52673254266663,-16.750856617509328,-4.076813168815679,0.40799059042472635,-8.318493496767484,-1.3693862076635264,-3.23447981326862,-10.009457070085418,-23.309599052758777,17.70522936289825,-5.847499401549308,10.344778010500256,10.2911604276714,-2.332654295300193,-5.024895359809329,4.989524764200798,-13.166943124642842,-0.12708724963854268,-5.580938780888283,-4.096084338675189
33.473745077790724,-61.09019012515618,-8.316618131422615,30.95840785984995,4.070604063981586,-11.083968861844896,-8.483490004651419,7.931861809951443,-17.139247014696945,10.451681414063186,-6.817527920259607,12.994688775496947,4.048257874869644,3.7319848014320285,-16.346388677766978,-2.920614339529743,0.7968964914225877,-12.315744543930958,-1.8306760161298694,2.9453455708185805,-0.31982001508085567,-0.4654393871234842,9.733573675598707,-21.34327821813234,-1.3214311756213135,0.5276176770933827,-6.861002497896077,-5.405660661536326,0.11043323801810173,-4.1831329635566075,-5.06483054327397,16.598087979286614,-18.43389553833095,-4.078575827273016,0.4135977373756925,-9.93829638440928,-1.3862414815935171,-3.222380131141177,-10.851730675195835,-23.309599052758777,17.70522936289825,-5.847499401549308,10.31391498117139,9.803329485683381,-4.430022309706375,-5.033470986411567,5.008481900227268,-15.812610513009837,-0.13832823393216725,-5.579391603541296,-4.857223540944345
33.61023786388404,-61.12919171742679,-8.649710818033293,30.90805741280714,3.272150846442009,-11.461238270192219,-8.392236447502768,7.907474360468538,-18.282729259788425,10.40369661700827,-6.824315482982717,11.833057155598642,4.0499520982930814,3.4489825574982005,-16.04342934524624,-2.920614339529743,0.7968964914225877,-11.17358576810815,-1.828782041351552,2.9456977319098536,-0.1751174472096686,-0.4651510149554284,9.619564320657213,-20.717845244192794,-1.3214311756213135,0.5276176770933827,-5.525576606871329,-5.409948237628633,0.10782446708954563,-3.6019330250244224,-5.0642496272721855,16.62604297464734,-18.23288697131199,-4.0792323658477425,0.4128127944946316,-8.011426601115726,-1.3873870065230856,-3.221984692028511,-9.858762583978871,-23.309599052758777,17.70522936289825,-5.847499401549308,10.327766807839081,10.228002699457972,-2.8535706754967745,-5.0299848007907455,4.991006454468687,-13.535485468031121,-0.13243840487679248,-5.58049644182079,-3.896746546472709
33.77101919986378,-61.15279944797611,-9.720669034196384,31.01107014250808,4.386781872540997,-10.838263678315903,-8.390225379350468,7.900935489221826,-18.964420547945622,10.508378104981073,-6.818095766131892,12.896663185635493,4.064195204881556,3.527935052730625,-17.184672144582976,-2.920614339529743,0.7968964914225877,-12.696844860099016,-1.8395270071466365,2.9466937465584104,0.46691850492829623,-0.46486956414292746,9.43454157758679,-21.12612058000797,-1.3214311756213135,0.5276176770933827,-5.0307458259286015,-5.412256893943837,0.11187227452888221,-3.1982727856879514,-5.064485887012633,16.536193446805008,-18.705308093749622,-4.095155298863399,0.43605834312612024,-9.104681051209393,-1.402854368020967,-3.207629125677404,-10.195108033631577,-23.309599052758777,17.70522936289825,-5.847499401549308,10.293326762283485,10.099547816136909,-1.7563228222974825,-5.038925075744124,4.987651056349199,-12.811720182678947,-0.11422084937552646,-5.585203885125535,-3.170576829218607
33.68561532609316,-61.14176371608404,-8.988312538041734,30.988904280468798,4.222217103432767,-10.94639163152386,-8.41680864983988,7.90812658796577,-18.399585556022817,10.549098958298693,-6.811447294705794,13.352416697895094,4.080174551978235,3.288424995598846,-17.672754661830087,-2.920614339529743,0.7968964914225877,-12.10418273808634,-1.8443368767834798,2.9495567129912903,0.4072736342311458,-0.4649237587942546,9.59597966705183,-21.521457757378148,-1.3214311756213135,0.5276176770933827,-6.030342332812541,-5.400119864623987,0.10327022837631583,-3.2389431358455294,-5.063284525509294,16.623656978640405,-18.801993520790486,-4.085040063173824,0.42050424584752194,-7.7300885410781035,-1.4136702445020726,-3.2123855504190555,-9.718461618266621,-23.309599052758777,17.70522936289825,-5.847499401549308,10.299749979101973,10.135736208437477,-2.8847128386704224,-5.062596391763245,4.995912112878577,-12.348580945869664,-0.11611118109856194,-5.5810576684629325,-2.7181073273699674
33.68328828654508,-61.125466658405955,-9.455881556921991,30.963467015930608,3.9231974014702105,-11.131119313692695,-8.442854979237392,7.9120341115628126,-17.556702936131366,10.558136263438623,-6.805829340901019,14.22085669625443,4.079571558050615,3.2240896625586446,-18.039456466308017,-2.920614339529743,0.7968964914225877,-14.521720950893672,-1.8347849922114166,2.944395897952178,-0.3136607972067935,-0.46523714635711294,9.50792471563657,-21.638799077934074,-1.3214311756213135,0.5276176770933827,-4.317502866863709,-5.397973785826961,0.1097357418728761,-3.0808515881373726,-5.061919303375114,16.602128328638972,-17.978016900138556,-4.094395078080139,0.4340312804071728,-7.829450254732919,-1.4201534824471191,-3.1964454466749137,-11.099490092960178,-23.309599052758777,17.70522936289825,-5.847499401549308,10.299662003257401,9.938700439127347,-2.619703425245538,-5.053141593276534,4.994443569460856,-12.397164308456428,-0.10074870606091735,-5.588361612508808,-3.312251458988582
33.40663064703258,-61.07769408799268,-8.099946921704392,30.970943607719533,3.88042927923493,-11.127786702717428,-8.372324031330402,7.901782116509518,-18.61164819494911,10.504339321228597,-6.822657031831641,12.456029045810112,4.070068521523126,3.015270407816471,-17.65173775940668,-2.920614339529743,0.7968964914225877,-14.07067339769358,-1.8354656292287712,2.946691923228368,-1.1891435461585047,-0.46558569772070707,9.355104575377409,-21.55511168432239,-1.3214311756213135,0.5276176770933827,-5.232462166188824,-5.366904555794419,0.09374318392847497,-3.327505441003474,-5.064397934396685,16.447786016567594,-17.81326378219662,-4.08640657825293,0.42098251294056815,-7.844059628029704,-1.4322378231801287,-3.203156859169069,-11.020971650634092,-23.309599052758777,17.70522936289825,-5.847499401549308,10.30914006860968,10.202366968996538,-2.2869461393419144,-5.080033468235199,5.0099865769212615,-13.551667433169001,-0.10256882095177722,-5.582858067137402,-3.712175898897975
33.44836496508483,-61.07442788690088,-8.812260743946645,30.986103753910104,4.138269778875959,-10.992321324350133,-8.36140296089496,7.899828545602909,-18.738917177505215,10.501325387462106,-6.820220349545076,12.519588803326844,4.067964071869703,3.2127503623332827,-17.659286494050956,-2.920614339529743,0.7968964914225877,-16.078794369358825,-1.8278604679973103,2.943588679601871,-1.9703255217733133,-0.4652679851737824,9.404493804754116,-21.31566710805798,-1.3214311756213135,0.5276176770933827,-6.309344037288078,-5.409529013924744,0.11768173007568333,-4.40681719740995,-5.065055984608835,16.457140450261317,-17.64084427416936,-4.083352926795989,0.4199204421572431,-10.362705074953986,-1.416965221420745,-3.2109509393323927,-12.190637770507601,-23.309599052758777,17.70522936289825,-5.847499401549308,10.302123733517664,9.961634116570094,-2.0488653326047253,-5.083876010613486,5.007774868766657,-14.840610704451532,-0.08940425643806482,-5.589173225781686,-4.356046468676432
33.42220273430548,-61.06887608918833,-8.274348082416925,31.008964386417485,4.5648884416563185,-10.795304758309962,-8.375702802265995,7.903514691120619,-18.340426400626022,10.51386765836197,-6.819808737441142,13.327966372821884,4.062071851830322,3.0827624461130547,-16.827598746427128,-2.920614339529743,0.7968964914225877,-11.844882740473711,-1.832660916616411,2.9452001002525083,-0.6702125944803949,-0.4653081644829167,9.399265906678338,-21.518940711318287,-1.3214311756213135,0.5276176770933827,-2.9012734253603156,-5.381756246236556,0.10406277906263911,-2.803655591623926,-5.065632816865137,16.313295691081773,-17.372198307347485,-4.085910824704222,0.42365308034058397,-6.905783271690929,-1.4362586303711962,-3.195387356374018,-11.202454741453955,-23.309599052758777,17.70522936289825,-5.847499401549308,10.287589646129822,9.771981813434703,-2.480316778570103,-5.115400074169248,5.034363725226535,-15.599940744980833,-0.10396395391809166,-5.581112915953651,-4.316085600353116
33.713799474794214,-61.125961741714114,-9.593254958558713,30.993003311718287,4.093083232531998,-10.96780077887876,-8.349949320812987,7.8925332993962725,-18.760239789703807,10.434757532118386,-6.811312543256767,12.545801969949583,4.084906326239625,3.543878311237265,-18.01513398217869,-2.920614339529743,0.7968964914225877,-17.906442336337562,-1.8296826388042087,2.9422965723388304,-1.8240205664028597,-0.4649915648310404,9.468946924278454,-21.99992489859801,-1.3214311756213135,0.5276176770933827,-7.873395159879852,-5.451143087716932,0.13860027256343432,-5.034964552135365,-5.0634235026389955,16.540373511848152,-18.43067953064761,-4.0851532782336895,0.42171498321236406,-11.144143896517097,-1.4245431620238995,-3.2306793402684235,-12.658942157433692,-23.309599052758777,17.70522936289825,-5.847499401549308,10.294112607142921,10.160498064159496,-1.9886873605312712,-5.05281454422611,4.9707363087851135,-14.617918807482626,-0.055560687377303464,-5.598900455218094,-3.9492021591033275
34.001873410398225,-61.13167951234876,-10.843280486169071,31.023636320640758,4.5432953182728815,-10.781640577378289,-8.358989708517356,7.8936815257674695,-18.44786262476454,10.44308470826706,-6.827328703834744,13.400473123968016,4.087496195137971,3.6673953942109594,-17.57259795657452,-2.920614339529743,0.7968964914225877,-15.728090628175407,-1.8122697447228677,2.932672224213908,-1.1090232257381967,-0.4647202382561213,9.454729482228194,-21.685863789940388,-1.3214311756213135,0.5276176770933827,-4.438539087083207,-5.512103142544856,0.1763857661633489,-3.943702471054582,-5.064839472731553,16.34383491255684,-18.595558740567554,-4.093381705817893,0.43556825836905344,-10.620967938872326,-1.4482174494175326,-3.2066797481477134,-12.74039822929769,-23.309599052758777,17.70522936289825,-5.847499401549308,10.265940297328394,9.191540103359008,-2.2144374534724864,-5.07640312759821,4.989458911403081,-14.785680068368857,-0.05261795331002728,-5.5970686342416025,-3.999182523870145
33.71333440839047,-61.08969240620187,-9.75978271840975,31.007726612486586,4.327406740054889,-10.865514393914898,-8.392363355412021,7.906451835098213,-17.89567734620793,10.502172353631853,-6.82920287552554,12.741742954511047,4.075397445141477,3.4530423556937357,-17.548811664538775,-2.920614339529743,0.7968964914225877,-14.374845711496354,-1.8335229635537607,2.944863318219698,-0.7704317774118117,-0.46467136754739424,9.379331417819111,-21.584038720710858,-1.3214311756213135,0.5276176770933827,-5.683621818199921,-5.424590023779899,0.12335336280556258,-3.840071080051194,-5.06560343241745,16.31712226092117,-18.663505981736165,-4.087210361115042,0.42602588419288784,-10.304042708492773,-1.4487708376378747,-3.2029158105377196,-12.087941489699261,-23.309599052758777,17.70522936289825,-5.847499401549308,10.26521059350297,9.784204652822218,-2.6354697545909413,-5.0901431258485,5.0209861693460685,-15.211127996608347,-0.08305800630010018,-5.584628673466426,-4.167192657277154
33.84195232125985,-61.135775676792974,-9.980612374959597,30.99714329237454,4.138396803227078,-10.96346737560944,-8.36537782896882,7.893052822037381,-18.27976921226564,10.458482542498865,-6.822988248531272,13.082632777218898,4.091202701642293,3.6329077675173505,-17.75308728566055,-2.920614339529743,0.7968964914225877,-16.203216857723714,-1.8237369017762959,2.9388643964500685,-1.4675095376577474,-0.464675567086207,9.37431174159946,-22.087070985771177,-1.3214311756213135,0.5276176770933827,-5.15861955113585,-5.460476336151827,0.14733917636261562,-4.035724701572475,-5.064096246638131,16.293727031812306,-18.804699760645942,-4.097029049014884,0.4394054094063283,-10.303635338585952,-1.4556417785166533,-3.20551310800144,-12.64621879700733,-23.309599052758777,17.70522936289825,-5.847499401549308,10.242769958186857,9.520742269002682,-2.7177074367540897,-5.079206448790492,5.004303176404715,-14.58960613957038,-0.05941269711859232,-5.593479602024247,-4.176746216992623
33.57280523946774,-61.071909778543514,-8.69012269165404,30.999726183713467,4.369652805954969,-10.888210239443218,-8.418842612155927,7.9148447613511115,-17.43680386949356,10.44125323265447,-6.820519118043205,12.854985529846044,4.071604567968058,3.507360689118576,-16.93976535501346,-2.920614339529743,0.7968964914225877,-12.9393994833253,-1.8332654448241779,2.9445459408841494,-0.5556762242121636,-0.4650113955389831,9.47764995481975,-21.26121690387889,-1.3214311756213135,0.5276176770933827,-2.9295986816429256,-5.405716757706717,0.11384375784594747,-2.5494906246383255,-5.065487250375519,16.353764851463282,-18.081230707759403,-4.083780630483858,0.41855841318334236,-8.713216232322619,-1.4494403429831315,-3.211517085432008,-11.342215888810385,-23.309599052758777,17.70522936289825,-5.847499401549308,10.265219198980665,9.809531380489574,-3.454912100333587,-5.086581928153022,5.031267713221578,-16.66883849273878,-0.099216388778259,-5.577045545637649,-4.80290488646461
33.66653275427493,-61.08757676245559,-9.25586354067547,30.98606592803849,3.981973985132212,-11.068754481159134,-8.400694031734725,7.9084813719402165,-17.509642742333536,10.442687066744854,-6.823156181431589,12.402222093227728,4.0860540291751555,3.4092498692044186,-17.900106733971977,-2.920614339529743,0.7968964914225877,-16.395928726635262,-1.826500847221829,2.9414942906707906,-1.6670969001266478,-0.4651059996742219,9.370203196123994,-21.381238655736293,-1.3214311756213135,0.5276176770933827,-5.649246973618322,-5.4258148135385404,0.12335701364709539,-4.041965090254406,-5.0645203270421035,16.400860988255268,-18.24418565410565,-4.08664790853116,0.42042854947089664,-10.205818727587822,-1.4440681491985985,-3.2185686695777584,-12.196425558927862,-23.309599052758777,17.70522936289825,-5.847499401549308,10.297417517866744,9.969631399119958,-2.2697814155812672,-5.0714505196126245,4.993480651465397,-14.737932514715911,-0.07561896833291065,-5.587343205339555,-4.275954400132015
33.515906025861284,-61.08384352529412,-8.412281696026705,30.987654934344494,4.126780092275401,-10.999393705816813,-8.406259357035665,7.9122134302906755,-17.871306538579365,10.460467684745192,-6.82693243882901,12.2552412110029,4.082050248712506,3.339182726818522,-17.645279621530317,-2.920614339529743,0.7968964914225877,-13.77031151697045,-1.833213350861267,2.94428435469291,-0.7020896330085975,-0.4651733626245613,9.527538703957457,-21.497750901096563,-1.3214311756213135,0.5276176770933827,-5.2336761317919205,-5.403182569962129,0.10809301844617214,-3.430795500376476,-5.063537039084123,16.633122988011706,-18.69437234606272,-4.0853258611674725,0.4189394763294419,-9.130469762894702,-1.4276132683020197,-3.211448218238798,-10.577077554212579,-23.309599052758777,17.70522936289825,-5.847499401549308,10.305286711139098,10.436678791856433,-3.3889331531596234,-5.080003865012053,5.012083670209088,-15.27309804369919,-0.12474303279623872,-5.576073613956703,-4.241461119311333
33.42111478814001,-61.06671254606202,-8.162692236658737,30.986475917414975,4.200252759477252,-11.007717553390066,-8.449422349218727,7.919494590226868,-17.35847595209434,10.494579066944912,-6.808195864104733,12.991110921414244,4.05570172883876,3.383783880991237,-16.900132410805078,-2.920614339529743,0.7968964914225877,-13.323056364467904,-1.8326951591402711,2.9447362311247893,-0.5106086107898467,-0.4653818411273988,9.619919474535589,-21.31706668594411,-1.3214311756213135,0.5276176770933827,-5.5315957337873165,-5.410794527187924,0.10800347494688362,-3.285397852964726,-5.064603176143873,16.539496127543728,-18.483526302632733,-4.08488361194707,0.417512960495743,-9.039943758176726,-1.4152267654301331,-3.2149726861928114,-10.49104480298554,-23.309599052758777,17.70522936289825,-5.847499401549308,10.326922356197297,10.037107113970123,-3.17383794036234,-5.092144243188214,5.001952348714463,-15.086355741861174,-0.12347960505288974,-5.5799189446849855,-4.075271150156221
33.424306335903125,-61.08380952724065,-8.006680893006497,30.95919400049901,3.7662498988206785,-11.218809293899115,-8.396398481431113,7.9062796629770915,-18.30488545638611,10.493818810668937,-6.823162375186397,12.375260031572385,4.0668112995411185,3.091829760629258,-17.462034452160836,-2.920614339529743,0.7968964914225877,-13.276706078700732,-1.8325603913168058,2.9451148790755015,-0.7054944267097412,-0.4652751390058624,9.509911147652247,-21.53708859114856,-1.3214311756213135,0.5276176770933827,-5.5633248461352665,-5.409508593740965,0.10884149861492881,-3.2475892024747726,-5.063613708797163,16.61804807575398,-18.52147331385981,-4.0890172028004095,0.42352043548366014,-8.188421870798091,-1.417469938080886,-3.2059600189513877,-10.127688009569598,-23.309599052758777,17.70522936289825,-5.847499401549308,10.3316649482417,10.229962251425517,-2.693304933007722,-5.102984390060345,5.001870384161959,-13.962357742288743,-0.1300673940141771,-5.5777991108651035,-3.506296888338065
33.331287281322204,-61.07659029965998,-7.811406765532865,30.962723176373313,3.856628831663685,-11.151970478816825,-8.381284561505959,7.905299409847468,-18.021406184488452,10.50079486205244,-6.834430315439795,12.71493599844716,4.0603366577021704,3.1957957349887685,-16.843672949003906,-2.920614339529743,0.7968964914225877,-12.652610174536886,-1.8334996690965373,2.9466065165895934,-0.9358654588516622,-0.4651216055241263,9.517206783411263,-21.61063933880669,-1.3214311756213135,0.5276176770933827,-5.5834830583147195,-5.394871398260477,0.10118185458218465,-3.563118754754372,-5.064699018566193,16.48488707898221,-17.982470253376036,-4.0838130134733195,0.41832323157636564,-7.74224514033186,-1.4058643178651324,-3.205978662332442,-10.264969595552149,-23.309599052758777,17.70522936289825,-5.847499401549308,10.321164069077057,10.13089676081001,-2.8656937626616674,-5.096161879314281,5.0135357462181345,-14.279022198481993,-0.13719585599274753,-5.577274189757227,-4.0651336221101815
33.31114824677358,-61.051152313303064,-7.658541135850939,30.993806873344493,4.277753433137421,-10.95819323537773,-8.410906380498343,7.913836463803288,-17.722431858855362,10.497780573702176,-6.8235166696606155,12.775842656475508,4.065643020464564,3.3218564132654484,-16.713735872496972,-2.920614339529743,0.7968964914225877,-12.539084088910066,-1.836297895979384,2.9450521976593507,-0.4116258606051577,-0.46507687565964373,9.464500101789728,-21.025683897548248,-1.3214311756213135,0.5276176770933827,-6.058268325267811,-5.412720435125595,0.11400498627184541,-3.606280677956102,-5.066351329800236,16.43686989622859,-17.719154618853203,-4.081053844737527,0.4155194905626409,-8.157781441024252,-1.4072936508345917,-3.218888040865155,-10.207105304333679,-23.309599052758777,17.70522936289825,-5.847499401549308,10.313977579408988,10.070876953587733,-2.9754406191890226,-5.119246704313546,5.022947842807693,-15.338098577809703,-0.12882417758572295,-5.575474875940808,-4.336449332185097
33.47003041667204,-61.07512133123402,-8.303696462294354,30.99936838429825,4.41636616552748,-10.929463897296369,-8.435600541412475,7.917688079600087,-17.323168709316157,10.473103783256544,-6.834938140183263,12.77075238484776,4.0602798812973875,3.428117017991248,-17.163651032753442,-2.920614339529743,0.7968964914225877,-13.500552036676165,-1.8317298027495175,2.945841452653824,-0.9509157066709157,-0.46505925578043755,9.54657993522723,-21.46245344856142,-1.3214311756213135,0.5276176770933827,-7.051085974754457,-5.4136112582927485,0.11408561253483157,-4.321059629997372,-5.066470395387034,16.38765896933564,-18.333672289031007,-4.083780221257097,0.420075350986619,-9.271461347407598,-1.3967782572237177,-3.2155941588435524,-11.102348599179047,-23.309599052758777,17.70522936289825,-5.847499401549308,10.304173661794175,9.503988543179211,-4.255763955052364,-5.069589791555175,5.009841734448288,-15.692182048198184,-0.1151149036555214,-5.580389423143976,-4.825294835538401
33.41695209825338,-61.06742911219132,-7.878743368805521,31.013006714785025,4.457345529957046,-10.860540852710376,-8.413119320649725,7.9121146149602435,-17.625303643466466,10.456714884860217,-6.832392754059387,12.819202468402874,4.062757288076405,3.466138612910362,-17.025648520745964,-2.920614339529743,0.7968964914225877,-13.134949307690363,-1.8386936222844479,2.948412946670983,-0.821580461239984,-0.465321758605267,9.462848630194637,-21.105602596220322,-1.3214311756213135,0.5276176770933827,-5.958491077401845,-5.399966239411329,0.10738466400545577,-3.69768960699297,-5.066926700591341,16.299528339347976,-18.305724167147403,-4.081038754113647,0.41302524551280273,-9.04148910368529,-1.403275123031865,-3.2243614513567413,-10.939430987657655,-23.309599052758777,17.70522936289825,-5.847499401549308,10.293356192456466,9.545394348710232,-4.103307070848553,-5.085579992856897,5.012743770375602,-15.950160637569974,-0.11343241383669533,-5.578658144318728,-4.600905913614257
33.44603087158334,-61.06312731425624,-7.896503090110582,31.00625566175561,4.472871664217843,-10.894256079429567,-8.515731105084912,7.9329598827082375,-15.666050610668458,10.511128692511901,-6.809614222717392,13.890136008562969,4.054502351447557,3.744884756212611,-16.605521092410918,-2.920614339529743,0.7968964914225877,-13.30716190566916,-1.8377391196926431,2.948506010665612,-0.24068354237329181,-0.46540436372936256,9.644542249173984,-20.613679748254633,-1.3214311756213135,0.5276176770933827,-6.651830439984867,-5.404748994856147,0.10767084291682932,-3.8524592358127325,-5.0664275280070745,16.34766123736684,-17.732141438713207,-4.082303943950144,0.4152230348724982,-8.788944651464732,-1.3742760102928053,-3.223008501512058,-10.659891709978954,-23.309599052758777,17.70522936289825,-5.847499401549308,10.314758884607288,9.342306760309201,-4.596833640164638,-5.060866489319504,4.997425483365682,-14.513535131343914,-0.13328758322290463,-5.580667254434676,-4.760695399706126
33.52608597161998,-61.07420101185166,-8.446230894342701,31.016347343187768,4.701311075802467,-10.809946484738068,-8.516818569170107,7.931921668056477,-15.53393175897191,10.57421133195067,-6.80026900324466,14.966520878846048,4.044038560982725,3.8978518980195247,-16.006228230584405,-2.920614339529743,0.7968964914225877,-13.164355875782146,-1.8453874047659042,2.9488902379226496,0.2551377375310473,-0.46526594122175946,9.758651930790172,-20.785876812500078,-1.3214311756213135,0.5276176770933827,-6.7316506001246985,-5.410783511613908,0.10987186976714691,-3.8641811429724306,-5.065919819655786,16.31268443377696,-17.47782957549665,-4.08374153162065,0.4179204153028552,-8.705327641675915,-1.3742149961957708,-3.220743854399172,-10.972202261572155,-23.309599052758777,17.70522936289825,-5.847499401549308,10.301949948333084,8.77301436358014,-4.878897320195604,-5.043639447214191,4.999683641940772,-13.918168778573333,-0.1248914912980853,-5.581716645364347,-4.81028264325751
33.53549679793037,-61.09587813725797,-8.67542075052829,30.9863764058521,4.071782590009597,-11.003239665203907,-8.402578531055571,7.903168919570471,-17.447186688089243,10.487609407485998,-6.821498281127613,13.132154918618362,4.061718494825512,3.505213205531134,-16.71819052941794,-2.920614339529743,0.7968964914225877,-13.40128169379652,-1.8422953544032765,2.9487301916321926,-0.7495169153292007,-0.4649899167796346,9.420524131554489,-21.873797960983786,-1.3214311756213135,0.5276176770933827,-5.780931557084987,-5.395076325704987,0.10869738270315049,-3.982370396273698,-5.0662071855920505,16.153711030604626,-18.289860774539648,-4.087103763377041,0.4236071312734242,-9.566730693929799,-1.4325408827290391,-3.2106888533026705,-12.251515152605227,-23.309599052758777,17.70522936289825,-5.847499401549308,10.240693389443239,9.43142313525758,-4.0676886050254435,-5.096141753556272,5.034816793243958,-16.509721137497884,-0.09873453777622915,-5.582746047153153,-5.238762249337044
33.595002517780536,-61.07558216485644,-9.044488009057085,31.01209732056396,4.413903849473372,-10.830833553453564,-8.428056087323975,7.9119072715104775,-17.058614810762364,10.507095839463634,-6.823302881259578,13.371269705729947,4.060817257757133,3.5832098807726482,-16.532428629124738,-2.920614339529743,0.7968964914225877,-12.1477741331597,-1.8363751893135936,2.945815039460265,-0.4553420937137389,-0.4648705055577668,9.458279598709797,-21.55761433292476,-1.3214311756213135,0.5276176770933827,-5.147383626369027,-5.411721594153298,0.11629513168554861,-3.6940411861082687,-5.066437285750967,16.15672299838426,-18.524988121065125,-4.086430076811434,0.4236254609667811,-9.970460545030328,-1.4420962371945396,-3.2026556302416647,-12.361074791487157,-23.309599052758777,17.70522936289825,-5.847499401549308,10.240176468569791,9.417854567714688,-4.033056952746232,-5.103483831312591,5.049357656091145,-17.398412701075436,-0.11354915489636513,-5.575888739078172,-5.658957000718515
33.971214752215445,-61.1518425426613,-10.340015348918214,31.00899524030535,4.14174213510833,-10.916888560704468,-8.38674640756453,7.894507034521185,-17.678426239634945,10.50259586613909,-6.817065290787082,13.618701439491403,4.081604209964936,3.8127196610438943,-16.518332175003017,-2.920614339529743,0.7968964914225877,-13.379630520162465,-1.82766410308786,2.9401460163802904,0.0026270403125838726,-0.46471431816084785,9.334911145760348,-21.587689441166663,-1.3214311756213135,0.5276176770933827,-5.294897002682944,-5.447698744272326,0.1385284792165306,-3.479652654200784,-5.065001491024696,16.202670448013343,-18.79979140197985,-4.1004629107731665,0.44200752080315286,-9.658717547724557,-1.4556025722130261,-3.2003440779513994,-11.813267784597894,-23.309599052758777,17.70522936289825,-5.847499401549308,10.227595533202313,9.409338109312145,-2.2220783811478526,-5.06879454471246,5.008152739786707,-13.369701914829003,-0.06733238756736282,-5.590137757941136,-3.6675821388172363
33.96630168375368,-61.144783495092504,-10.587317548816186,30.985763616387967,3.847987472829696,-11.095792559869412,-8.382131056933586,7.895017512277244,-18.09521517383268,10.446183879813693,-6.826580116558561,11.36948466124398,4.084471394511119,3.469101609548444,-17.91224779358126,-2.920614339529743,0.7968964914225877,-16.29446652700581,-1.8191810133829713,2.936146580947812,-1.9388474377628224,-0.46469902074514513,9.385178892852714,-22.24933210933658,-1.3214311756213135,0.5276176770933827,-10.136672558268943,-5.454202441049502,0.13935370384485363,-5.730818591341691,-5.065718748911192,16.23349768900237,-19.540638276601264,-4.102365522220237,0.4450976429887838,-12.823206774921346,-1.4746514228914935,-3.185438642250073,-13.66956641170599,-23.309599052758777,17.70522936289825,-5.847499401549308,10.252107694333183,8.923565280570548,-2.651730084459736,-5.117460542375925,5.005757784119315,-15.236931706173792,-0.06165032577997975,-5.593297846136692,-3.9534780558515674
33.75820000892431,-61.14238522784731,-9.626596036440905,30.9657452175416,3.7714022946311516,-11.159343444140648,-8.41562284200249,7.906351707907845,-18.19978385284043,10.491662400823481,-6.812683999665007,12.666724344448053,4.085983703973876,3.3567413281621965,-18.10553123601817,-2.920614339529743,0.7968964914225877,-16.087407973534425,-1.8358843399242608,2.9443083467185764,-1.2167647580817782,-0.46488642099274674,9.488357161629024,-21.806133226512294,-1.3214311756213135,0.5276176770933827,-7.04035549786618,-5.448793269138381,0.13536958273391603,-4.682480747374626,-5.063293699843804,16.480308083290126,-18.837002755448772,-4.091743877822012,0.4312894901833976,-11.141593821603493,-1.4489281209228773,-3.2034883214061427,-12.771523385683352,-23.309599052758777,17.70522936289825,-5.847499401549308,10.23990566855498,9.612768758258863,-3.2085607965685963,-5.0763984277196625,5.017593494109963,-14.622537282336475,-0.06970601453465797,-5.589167556783054,-3.94726677063076
33.63712280594628,-61.10877640265267,-8.885092204571105,30.965202158395424,3.9632332114789652,-11.164195035834435,-8.401947270292931,7.901389958088177,-17.579733884473626,10.479072930512274,-6.797955975434392,12.542032517034965,4.076485134043871,3.463574680855767,-17.051864720293864,-2.920614339529743,0.7968964914225877,-14.138030113320786,-1.830692886724318,2.9452097174231473,-1.1601075935653107,-0.46523530265714635,9.48966917095278,-20.290973062777788,-1.3214311756213135,0.5276176770933827,-5.681703237358217,-5.436741193508345,0.12297842728978836,-4.1507210313367935,-5.068952666157338,16.020286761096063,-17.1376597371268,-4.087441556040322,0.42377777408348005,-9.569465740175918,-1.4122286267385793,-3.191787787021463,-12.268215363424694,-23.309599052758777,17.70522936289825,-5.847499401549308,10.276890558619984,8.804449284818105,-3.8668950828416104,-5.077839600763522,5.012392967074616,-14.383589616009953,-0.10753046801907895,-5.58610614871653,-4.922353472277918
33.34339012196102,-61.04646472908975,-8.118804674732253,30.97678831314891,4.106209958779769,-11.099526689637095,-8.420150359535569,7.912240859269235,-17.270650290942854,10.483797818004069,-6.821769569175551,12.487740362799268,4.068181917528306,3.1826342240067946,-17.11282447933437,-2.920614339529743,0.7968964914225877,-13.473683455528281,-1.83358239155578,2.9462005428736764,-1.0195123800819523,-0.4656240126141448,9.418672895698096,-20.60100933219801,-1.3214311756213135,0.5276176770933827,-4.515663426762352,-5.408019528599091,0.11414070122348402,-3.570561241076698,-5.066575531916084,16.25679445028853,-17.539857353209182,-4.086018788531776,0.4208515187352786,-9.293260454038574,-1.4311202884074574,-3.1946815965101867,-11.891058236672894,-23.309599052758777,17.70522936289825,-5.847499401549308,10.284328446781856,9.40882008312347,-3.9508018346158895,-5.101973656697759,5.03962791928409,-15.728265794758297,-0.12659457080072495,-5.575462549313144,-5.209833640682792
33.11059545753227,-60.99834667283508,-6.424733880490189,30.978113018590147,4.270467440746188,-11.045575804864535,-8.432674301511069,7.915424386312285,-16.807264006923937,10.545267043036757,-6.805537583808681,13.950478620396183,4.052503408382848,3.253647598179538,-15.56648900646156,-2.920614339529743,0.7968964914225877,-10.839648728529923,-1.8389420899693962,2.9463405585546227,0.30685095737245405,-0.46597440997945333,9.485094891813732,-19.29006490755356,-1.3214311756213135,0.5276176770933827,-2.505539111436317,-5.385106750356342,0.10511935266719952,-2.0585293393385022,-5.066031743676678,16.33186695879694,-16.09401848701295,-4.081452630111905,0.41019452741097007,-5.822558074456957,-1.3998390989903302,-3.218027352464152,-9.453728138542452,-23.309599052758777,17.70522936289825,-5.847499401549308,10.312825481481758,9.554578399016766,-2.137449497340622,-5.0778857095304355,5.0245469975205745,-13.46680402267426,-0.13730045875252572,-5.571701385742695,-4.2987373361042085
33.382606085020825,-61.06000815946004,-7.432772877022389,30.966665631208055,4.055920412962365,-11.151812371233808,-8.446931308821796,7.918935496469183,-17.212397297727016,10.50079753287889,-6.823187860116639,13.213278762987187,4.049211662255092,3.414572957273763,-15.973687422977497,-2.920614339529743,0.7968964914225877,-10.633224282499878,-1.8446814972246364,2.9513122164219614,1.2130047708338783,-0.46583780355084353,9.546011375995542,-20.528307058416278,-1.3214311756213135,0.5276176770933827,-5.833222659097018,-5.390542798027568,0.1043314313271842,-3.2462600679015647,-5.0651336904576745,16.443148681709452,-17.387122053890607,-4.07962006925715,0.40797068042881063,-6.88017365909376,-1.388830305185964,-3.2285798393392064,-9.731116735486108,-23.309599052758777,17.70522936289825,-5.847499401549308,10.317993523051463,9.646103344077652,-3.0498652368069123,-5.065847616351433,5.001519285597464,-13.753635499065737,-0.12340645093856917,-5.57770265291558,-4.3358549489869915
33.355764945158924,-61.07198378162371,-7.784094381704905,30.993537082919303,4.349901508584524,-10.943289570284277,-8.377931666393499,7.902625658962926,-18.388120047568925,10.52979350014008,-6.827163103855786,13.60751338305618,4.054738979801908,3.3389470830794634,-16.254164902532548,-2.920614339529743,0.7968964914225877,-10.78289365425799,-1.8394148079903145,2.949221653853639,0.2581604302857752,-0.4655092198491846,9.432748500465573,-20.841481723335576,-1.3214311756213135,0.5276176770933827,-4.77218121942521,-5.385661174567277,0.10635710288477629,-2.9945166086527486,-5.065644136187599,16.3127928677335,-17.40176047633319,-4.083829584786447,0.4173253890633029,-6.854423722759009,-1.4109967217164958,-3.217980853300098,-10.170785576116762,-23.309599052758777,17.70522936289825,-5.847499401549308,10.286184551174335,9.537403381753595,-2.526836539088441,-5.083820928097595,5.025215633225382,-13.80144580778752,-0.11204816917112098,-5.57829758558806,-3.7147440609607916
33.41601765593704,-61.08858889842347,-8.03108725635737,30.970665803461934,4.00618757953413,-11.077879767224918,-8.36979251262283,7.898393841085047,-18.592342967588255,10.53502525215937,-6.815013373434845,13.152012960952916,4.076631605339928,3.5666767991300135,-17.009589096464545,-2.920614339529743,0.7968964914225877,-11.643010900468713,-1.848523918121295,2.9522227332661246,0.6281873625783412,-0.46511076429211307,9.494333866588578,-21.445411639373425,-1.3214311756213135,0.5276176770933827,-5.850592740805979,-5.387403212551143,0.10209183273225758,-3.3847661689491826,-5.064886188584337,16.372460871019403,-18.272749151509665,-4.0855100140252505,0.421890801300754,-8.093256507072269,-1.4167411357780322,-3.20779831392187,-10.29339030291425,-23.309599052758777,17.70522936289825,-5.847499401549308,10.280880345656094,9.862966752845137,-2.495908337547009,-5.072104338792546,5.019528247145025,-13.977274480894595,-0.12618583110036496,-5.577592512767723,-4.227400754423156
33.6296247000296,-61.426554482713435,-7.1786919688829816,30.852200568843507,4.377511271368508,-11.47874732566809,-9.106315895113005,7.933107095416575,-4.791873465710523,10.520022957676444,-6.785198938677413,18.55286993353083,4.936541556444393,5.711070929145707,-55.55787761587695,-2.920614339529743,0.7968964914225877,-87.86304441725015,-1.2220849160455038,2.6482896278998838,-45.223192297558406,-0.45667437533518374,11.613549999439886,-63.062804629593344,-1.3214311756213135,0.5276176770933827,-91.75572902536088,-9.459994300885798,2.5207810686330556,-49.76103878335982,-5.006005992579205,15.456736407042685,-67.2474361632059,-5.004007459093158,1.9288692022165268,-104.21959322741456,-4.274847959603111,-1.2720215160827102,-58.634333082535264,-23.309599052758777,17.70522936289825,-5.847499401549308,8.326280770423466,2.2243140188984825,-59.380062996326515,-6.903744355057091,7.933794790887243,-104.36888029170639,-1.8640196942776472,-4.80507449511475,-53.456548848489454
32.80056308050557,-61.088856143387225,-6.599391100947026,31.197776478591692,8.95384183024718,-9.080438695082245,-9.217293018997639,7.983080337974173,-2.3661419700472877,10.450482039862207,-6.779355518073183,12.237993016951005,4.909313736223787,5.702715630611105,-56.34917976934393,-2.920614339529743,0.7968964914225877,-100.2876853384061,-1.1191399129141681,2.5894351581566104,-56.368277307439236,-0.4570146887434965,11.238671627997682,-62.11050772567408,-1.3214311756213135,0.5276176770933827,-101.47857177276036,-9.433584768673333,2.492013564258044,-59.12216256362905,-5.015934751218452,15.856738696167827,-61.281610852331085,-4.9020351800786495,1.7940655985877054,-105.84891221141407,-4.132801144631504,-1.3658349981099027,-61.85414217910312,-23.309599052758777,17.70522936289825,-5.847499401549308,8.513690323078531,3.904461549839854,-55.69242467741225,-6.781993862168381,7.774582008478863,-107.0405300398834,-1.8063541983606344,-4.837470214926062,-59.444232991775515
32.54967585372174,-60.925673001914994,-6.673861717496057,31.345115215727386,10.91194307782322,-7.917970348754084,-9.309608274475321,8.023573579437883,-1.1728084234640832,10.464752593584903,-6.775596015038274,10.838555355990106,4.9315868935104294,5.947048218085344,-60.42734354794878,-2.920614339529743,0.7968964914225877,-111.19825251873448,-1.009775175454199,2.531576259861155,-65.1355735558097,-0.45702368742641697,11.26000912857802,-62.764515287821865,-1.3214311756213135,0.5276176770933827,-110.94129577369107,-9.742410836399845,2.6698358385834995,-63.903447626406546,-5.016753487335257,15.981180581114348,-63.94490301246425,-4.9088680576249,1.803796725674039,-110.89916628016282,-4.233244958818787,-1.3024797622211137,-64.78504764014176,-23.309599052758777,17.70522936289825,-5.847499401549308,8.541667168264334,4.0256081137298905,-55.57558905072413,-6.819220410302184,7.832800878773449,-107.76643711171789,-1.896683112689029,-4.792774571559755,-60.246300046165054
31.54530680413228,-60.747388407352055,-1.959783049974531,31.44851245161084,12.631397475341469,-7.020268765025364,-9.499282933842514,8.078905479449434,0.7526298489804191,10.634266094011721,-6.847516852506754,13.466027070594365,4.973482890288309,5.07559566029067,-62.758980117299366,-2.920614339529743,0.7968964914225877,-112.53536089605012,-0.9294159166511308,2.472119077362035,-73.68374036898693,-0.45682481756966004,10.93254391286567,-65.40972983513883,-1.3214311756213135,0.5276176770933827,-115.88173022562445,-10.121593768149259,2.9659830448930795,-66.63987759338589,-5.018781355760337,15.619109643256085,-69.08076099484956,-4.973829347631281,1.9023667176856327,-112.98229995279891,-4.504906925393098,-1.0617704301335473,-66.33034212999276,-23.309599052758777,17.70522936289825,-5.847499401549308,8.34416695273498,2.4093992531815704,-62.917342821296415,-6.965911680226528,8.180217078490935,-109.3540865892366,-2.149305985249836,-4.629345542607666,-61.61940143654003
32.296653458828,-60.90840871409755,-4.000514710726387,31.39469903648783,12.03620067088997,-7.343750029161719,-9.428671608049369,8.047565142839362,0.5270480360429026,10.376645902273074,-6.7827844061813005,11.700230005631262,4.915950738520648,5.455908732393787,-57.51654888266288,-2.920614339529743,0.7968964914225877,-104.00458807129607,-0.9933718302192742,2.5108227963142618,-65.91079822572502,-0.4572257049232542,11.009609814004081,-62.20155586508322,-1.3214311756213135,0.5276176770933827,-105.97960412705696,-9.795251858779295,2.76878397837267,-62.84706307978844,-5.019859536138765,15.698210480749536,-64.64404735463629,-4.9149700369393825,1.8187308198538743,-106.61262371329138,-4.291218568021368,-1.1997656579658407,-63.24050658047789,-23.309599052758777,17.70522936289825,-5.847499401549308,8.426757870405318,2.642861009878043,-60.770898429896796,-6.843975783687822,7.956543935366,-106.89227783407367,-1.9833962074609006,-4.700377886477252,-60.06394969464584
31.878581791403562,-60.91595037955432,-2.3225705280089155,31.460059012787394,14.222208957903426,-6.3759322861178775,-9.4261134207236,8.04729542977821,-0.05162151623245137,10.337214583778005,-6.809224320875345,12.317935142967649,4.987981684378648,5.4255764413781495,-60.486972545023086,-2.920614339529743,0.7968964914225877,-102.65846299987683,-0.9967602126363424,2.499276595513091,-68.31603227828033,-0.4555349917733164,11.087843085724494,-68.92178480717652,-1.3214311756213135,0.5276176770933827,-115.45214368656316,-10.267218406473468,3.0999785091387553,-67.60468964860785,-5.020534073460576,15.381890977137626,-70.9405731946699,-4.986632830007277,1.9444703807306487,-111.46052132683266,-4.522182708023521,-1.0356147528813815,-65.82619090848533,-23.309599052758777,17.70522936289825,-5.847499401549308,8.211336571183836,1.2066732754511067,-66.9230270239654,-6.947938012728546,8.253316756806157,-112.47779031638457,-2.1648111818520475,-4.594905120569264,-63.662557243817034
31.992673634817578,-61.018834969587076,-2.1384156331947395,31.44644861195652,13.165419498337858,-6.7082978487011085,-9.332872591977464,8.025489539150765,-1.1205289822850482,10.244874089824345,-6.783661380649135,8.29871259208051,4.974339232793907,4.613975595533634,-62.724210731004675,-2.920614339529743,0.7968964914225877,-113.06172510576383,-0.9535702821299724,2.479818867821308,-74.56955192959241,-0.4555713478793989,10.549339048583926,-67.63259243001546,-1.3214311756213135,0.5276176770933827,-113.82703216943439,-10.126511796747339,3.020778527632658,-67.86749080643834,-5.022531743671316,15.34150193037502,-69.94023309844002,-4.972346391364052,1.9108900381670701,-112.57468841389372,-4.5424613242993885,-1.0251823053943814,-68.12241758206015,-23.309599052758777,17.70522936289825,-5.847499401549308,8.291467743307301,2.2193066449404535,-66.3545821506954,-6.873780501207481,8.131383966415878,-109.88127245107198,-2.1168531897301004,-4.614760835476255,-63.58335128673286
32.55716003483343,-61.1239850281063,-4.090760696975414,31.398539441353524,12.507667372782098,-7.052361835126522,-9.252238351179287,8.008662173127822,-3.1579157491347143,10.19514308336635,-6.77902084506297,8.61783003318613,4.921719330007018,4.648055710921248,-58.557943331895935,-2.920614339529743,0.7968964914225877,-102.93794015520746,-0.9904416227546216,2.499043202205634,-68.91440231839842,-0.4560002498051445,10.571463742742724,-66.80666614024926,-1.3214311756213135,0.5276176770933827,-111.24817825569855,-10.09027623560447,2.99438855230628,-66.88599758293208,-5.022946828156286,15.286943026814445,-68.40200283955457,-4.972229355311461,1.9030533569821646,-109.12812732087059,-4.5182987610612635,-1.037388576361366,-66.31334448144455,-23.309599052758777,17.70522936289825,-5.847499401549308,8.27051643101557,2.034800749757842,-65.43331525116622,-6.873949665997437,8.120090359697347,-110.50918862393976,-2.1028292320579816,-4.620020922504396,-63.43342147980473
32.368192536091364,-61.07437206968819,-2.307959652435029,31.36464799745266,12.052878873961554,-7.27952516241421,-9.247839757740715,7.993232903123105,-2.710277001122936,9.967942789888339,-6.714048459567402,5.710500299094859,4.91754991740637,4.454014031838642,-58.58382685873891,-2.920614339529743,0.7968964914225877,-106.12868093318627,-0.9869758690628648,2.4963773216101406,-72.72214238740634,-0.45623027151626805,10.510415243434917,-68.84885005044481,-1.3214311756213135,0.5276176770933827,-114.29595657040943,-10.183783959153825,3.032398749351542,-68.78738514988157,-5.0235274286594676,14.92079983640056,-69.91598436365237,-4.993654719597081,1.942597307360057,-111.86875483277628,-4.626411713401145,-0.9717860436402563,-69.93820392603133,-23.309599052758777,17.70522936289825,-5.847499401549308,8.191907980655131,0.9510852552039211,-69.45633323478829,-6.945208617862751,8.25240435139839,-113.79359866603362,-2.163291350032226,-4.597356965290867,-64.59720983560177
32.38370195852308,-61.073341242196925,-2.6522978764951173,31.35523436016148,12.274623676921463,-7.175430409023893,-9.300149994996104,7.995969568152091,-2.383596489804013,9.979385415802273,-6.7185168005034335,5.45633673567173,4.9313294918879285,4.482026206184836,-58.55565541066897,-2.920614339529743,0.7968964914225877,-104.74449510014543,-0.965684135028474,2.4822412956437643,-71.3253651971599,-0.4558956284635953,10.55170946389761,-68.90473104730754,-1.3214311756213135,0.5276176770933827,-116.22119118802073,-10.246397190704142,3.079760643147477,-69.60079967997082,-5.018590911149436,15.353075254271358,-70.37072222623289,-5.012617777437205,1.970202220733176,-112.28925629233733,-4.618702534706973,-0.9384253152776523,-67.79290927208714,-23.309599052758777,17.70522936289825,-5.847499401549308,8.24379616441087,1.9104257736861872,-66.05179134494917,-6.912371986809593,8.192346882933096,-110.63715222913795,-2.1238545892211094,-4.60544796635151,-63.30003795965955
32.22291674698205,-61.0140712636124,-2.341525635556108,31.413937174055572,12.712604795942202,-6.941740900723763,-9.331487160683544,8.01179562565648,-0.7922270751250622,10.094799895802357,-6.738886470830979,6.956666384565464,4.923165635762386,4.750350590781299,-58.560408877807276,-2.920614339529743,0.7968964914225877,-107.15090600184197,-1.0024642411170146,2.5055505421547024,-71.32728686281068,-0.45544106665367073,10.547576395743054,-67.35907609712766,-1.3214311756213135,0.5276176770933827,-114.69327097456858,-10.136139587163287,3.012509671280219,-68.35680856221857,-5.0246422194581895,15.246460425356117,-69.29332757198402,-4.962776619466693,1.910188972971016,-112.11170045930136,-4.476560647812333,-1.0570272657902369,-67.58184530126495,-23.309599052758777,17.70522936289825,-5.847499401549308,8.265856757753,1.8831312015112092,-66.45730890787202,-6.894453675642104,8.17122814937562,-111.51722960484071,-2.1097737371026697,-4.617941522967665,-64.54780886529954
32.464047636099835,-61.09482055685091,-2.681117360319739,31.354824784271585,11.871042756124822,-7.35807747986844,-9.239988650136608,7.981085496408545,-2.1672401890775355,9.830968303788435,-6.683047057911129,3.0855555727211,4.879217743599741,4.676566951403924,-56.00663239814069,-2.920614339529743,0.7968964914225877,-104.97139851054948,-1.0366178651638958,2.522418723320242,-70.33023022891877,-0.45572119511207576,10.472398947991232,-66.68064027638363,-1.3214311756213135,0.5276176770933827,-116.13999375473173,-10.074145778165402,2.9703619749365995,-69.266437527763,-5.025811615197236,15.243035316816226,-67.74085417974081,-4.940474095674675,1.874847013209068,-110.67735998641281,-4.4053254287306745,-1.0993091134170057,-67.5258137248072,-23.309599052758777,17.70522936289825,-5.847499401549308,8.323143289526994,2.158929011773763,-65.03681440156508,-6.843967718199659,8.076772585951582,-109.60885609007481,-2.0416371934689033,-4.6473552179702,-63.76420370002738
32.71145330538754,-61.146984792871805,-3.802558860797813,31.37448124130895,12.2471419331812,-7.137835847245518,-9.238935783043448,7.978954329642005,-2.8243005598801947,9.883201376931105,-6.697313112447001,4.285222205620917,4.8789998641445065,4.831300108556495,-54.99038442986752,-2.920614339529743,0.7968964914225877,-100.60283753203021,-1.0389312425642212,2.5203197308484873,-67.44695535197634,-0.4556235261996765,10.555133414296336,-66.7645555786799,-1.3214311756213135,0.5276176770933827,-113.96137003815616,-10.060055749443611,2.9685455557835407,-67.87057974017729,-5.022889035562909,15.444138409034517,-68.34054894636733,-4.947824493250305,1.8846144431293879,-109.83082285218639,-4.389794708650898,-1.0894113763082491,-65.55810391590902,-23.309599052758777,17.70522936289825,-5.847499401549308,8.328016374607316,2.4340391982929335,-63.53773044709673,-6.82861393152936,8.053050189394261,-107.42960833739514,-2.0207736716298363,-4.646221280642386,-62.43144728397031
33.25305318759383,-61.2799799717027,-5.798982481525097,31.31817755307083,11.411881766497087,-7.531963327957223,-9.143689263434876,7.950758342203192,-5.2352154791461185,9.765756684062094,-6.6764460212287124,2.626822305842886,4.8394293163194675,4.717050102834437,-52.78497684348133,-2.920614339529743,0.7968964914225877,-96.09650176890133,-1.062441477297818,2.5318984145134538,-64.76112745621577,-0.4560102819728153,10.4666094931007,-67.36894528650275,-1.3214311756213135,0.5276176770933827,-113.34123091003227,-10.040571359543922,2.948228403839576,-67.63843586515273,-5.022246744983931,15.341361006988167,-68.94804922725781,-4.960997825176532,1.8973780254403279,-110.2531831427936,-4.442625805562903,-1.0640501122066146,-66.22497455706784,-23.309599052758777,17.70522936289825,-5.847499401549308,8.267689778932235,1.9553021330960618,-65.55245293904738,-6.854881450878611,8.102761542142392,-109.03371077467281,-2.0439412403518658,-4.639436172517399,-62.6481797369264
33.08491015709378,-61.25181194199477,-4.892101609418155,31.317005695145767,11.336916715798916,-7.5774105849610365,-9.133818320184485,7.953673716729838,-5.596970563135644,9.771734563727948,-6.673086062561362,3.2006732935863242,4.849223109180554,4.753554603298614,-53.443985050604596,-2.920614339529743,0.7968964914225877,-96.87075356030195,-1.0625148929117039,2.532854889606657,-66.35975647242707,-0.4561618612706917,10.543962982108354,-68.93702729926358,-1.3214311756213135,0.5276176770933827,-116.10888733099401,-10.143630064071294,3.006455520641786,-69.00401344575447,-5.021812548465079,15.237916466971619,-69.82294265622727,-4.9824885516768935,1.925535397141283,-111.00714220189215,-4.523162727425746,-1.021747982795542,-67.7750194456155,-23.309599052758777,17.70522936289825,-5.847499401549308,8.205389793216337,1.6225928269234169,-68.79150292604776,-6.922153638969863,8.216167573880776,-113.1397116745034,-2.129930975825733,-4.606811032415303,-64.20425089000182
32.43048472843771,-61.07016419574819,-2.4006088455668273,31.383739237129998,12.2739128452007,-7.145035415281766,-9.263732029302005,7.999510042749917,-2.0989950586317576,9.997270961367464,-6.717176486183383,6.011689497175896,4.904941743147853,4.694442339405652,-57.011868538831344,-2.920614339529743,0.7968964914225877,-104.88427582148347,-0.9933673008849099,2.4984230391450217,-71.36565480393223,-0.45608752287372467,10.528244139065578,-67.34187377140321,-1.3214311756213135,0.5276176770933827,-114.2521700930985,-10.07579514910509,2.9752561659135237,-68.20907275967102,-5.0252138433415565,15.143595829611158,-68.22342853015783,-4.9590360699525196,1.8984045154407625,-110.01811639958504,-4.509384562337025,-1.033013860264378,-67.83075347919291,-23.309599052758777,17.70522936289825,-5.847499401549308,8.24161743835783,1.6469405260997485,-67.43864657217809,-6.89536594339447,8.179503818607813,-111.93798062627496,-2.121382889464249,-4.6083005745798555,-64.60383471581028
32.72051232715372,-61.16427441951622,-3.746426601978513,31.351821983414094,11.687294046463997,-7.411475275283709,-9.20170497491965,7.971533287392562,-3.5709225932913267,9.86954877872775,-6.688640714298822,3.8993972707363165,4.9013633207543394,4.837319654826234,-57.08776376002183,-2.920614339529743,0.7968964914225877,-104.29917388088916,-1.0438616199230788,2.526648523126307,-69.54925490195818,-0.4557339513982365,10.538138778774009,-68.30711189802471,-1.3214311756213135,0.5276176770933827,-115.87238153080956,-10.114229068854316,2.9983981672107687,-68.48286775624786,-5.023442619738457,15.219028001334813,-70.45542441734314,-4.979570600786021,1.9318043131063976,-113.20925998538634,-4.5182002121256675,-1.0368631191573427,-68.50324497615858,-23.309599052758777,17.70522936289825,-5.847499401549308,8.198514087882025,1.7620800015070044,-69.45049219545632,-6.928896537281024,8.240596086373024,-114.15195680083055,-2.144815194675598,-4.603529385590205,-65.31737941487805
32.40682951056267,-61.11254027180675,-2.437790379218745,31.392524951422978,12.382706092544304,-7.083142811055427,-9.242081121865072,7.9823708113198695,-2.659158785547664,9.927160065786197,-6.700288698296312,5.758133212176357,4.899815524650813,5.00756007246137,-56.22567045478031,-2.920614339529743,0.7968964914225877,-101.67218806581624,-1.0626873906034824,2.5367174395724685,-67.81323788510348,-0.4556940540532045,10.606601849803122,-67.8728616146451,-1.3214311756213135,0.5276176770933827,-113.9632751108372,-10.039946264258292,2.9606210009240104,-67.0932402055392,-5.023700599671344,15.372193000120465,-70.02840675722075,-4.953028152978493,1.8979342095227283,-110.7709493067791,-4.432411849834734,-1.090188568336902,-66.17171709185446,-23.309599052758777,17.70522936289825,-5.847499401549308,8.216969343381054,1.8388918051344207,-68.95141476516291,-6.9005084188109524,8.198606332592183,-113.065094181357,-2.114937799736499,-4.617867683851428,-64.3290122877455
32.32838763605826,-61.01746599878299,-2.7647410427248573,31.448708089678654,12.61491318734039,-6.92758199384173,-9.310579410275164,8.019889749980523,-1.0702433205798414,10.165744780368415,-6.755362499753487,6.584829758345854,4.929605242768066,4.609481651240552,-59.978015335135034,-2.920614339529743,0.7968964914225877,-111.8688038429421,-0.9909558265934729,2.5001545365473437,-73.68396720171738,-0.45562763136683054,10.38199140242982,-66.3111101874447,-1.3214311756213135,0.5276176770933827,-113.07613265266534,-9.953576359026064,2.901354917863175,-67.418047503722,-5.028198845954071,15.221772706179994,-68.41961328560805,-4.922308716898781,1.8540989514615034,-112.00054776817048,-4.436554744273537,-1.105991518334986,-68.31307418160375,-23.309599052758777,17.70522936289825,-5.847499401549308,8.290501305607002,1.8701979236247617,-66.52838374071453,-6.856192895176028,8.111434408635992,-110.30456652206993,-2.0736972514810814,-4.639595125446134,-64.53407934364834
32.143641667213956,-60.991739886805846,-2.013178784870357,31.453926222768054,13.544320345006007,-6.501261092297891,-9.334980171364025,8.025983475538633,-0.8982282068244132,10.209035540601473,-6.779631787100316,8.33946055548168,4.944556464419998,4.614197089664583,-60.05533709014746,-2.920614339529743,0.7968964914225877,-110.60897287544378,-0.9892639506822232,2.493012273719038,-73.14206712243448,-0.4558656746689448,10.467005933645146,-66.12521380334385,-1.3214311756213135,0.5276176770933827,-111.43895434065266,-9.927387223724406,2.901189465839471,-66.40841024728941,-5.02563019757695,15.369731007144283,-68.06792933534038,-4.92228729892689,1.8532785376761645,-110.64575307393198,-4.431465039774037,-1.1093061163260793,-67.26283506665212,-23.309599052758777,17.70522936289825,-5.847499401549308,8.295538823602199,1.8506956497346714,-65.99433281406105,-6.854932027240663,8.09537979763939,-109.47935954795797,-2.067006369981609,-4.633380618828643,-64.20471701997576
32.26568907277859,-61.08263809258276,-1.5130874547905524,31.34477403930481,12.581031445206508,-6.957264987964392,-9.266266051338299,7.986338958355725,-2.2424321686918347,9.920479281814622,-6.728995593950332,5.386397534596677,4.973250929368119,4.178726010488943,-61.4712237844761,-2.920614339529743,0.7968964914225877,-113.46993502330565,-0.9643842030000792,2.4744284213625076,-77.01894346973818,-0.4561402720274501,10.428454852476873,-69.27848680889382,-1.3214311756213135,0.5276176770933827,-114.86563772476916,-10.170435498985547,3.0623916617212656,-68.34466165079645,-5.017586244201334,15.460691268218334,-71.10640388642983,-4.998613382778561,1.952316628294395,-113.76307792316645,-4.662242144415936,-0.9360684917416482,-70.01432726646318,-23.309599052758777,17.70522936289825,-5.847499401549308,8.220846565614417,1.6687377388870974,-68.30257794930324,-6.935519644602987,8.206982146017372,-111.25777170715162,-2.1638330166876067,-4.577948472627589,-64.47501937221993
31.15686523095301,-60.602367189829415,0.23129888357770412,30.543956830603786,-1.3686574751655942,-13.89478898779938,-8.70605473681137,8.014948781398704,-11.014730879686692,9.515761194857863,-6.624781545035555,-2.0390303218519596,3.7768535404343284,3.0065372382493902,-0.29230028081542514,-2.920614339529743,0.7968964914225877,-12.700627202264219,-1.610129781089669,2.840437338759211,-13.989176496268186,-0.4671626297238311,9.159120780911058,-4.568446496443109,-1.3214311756213135,0.5276176770933827,-7.351923713967427,-5.871376039148187,0.3786854400474981,-6.8111599464277655,-5.085243735081263,16.619396778368305,-3.643171990094139,-4.084712187395636,0.4247425938221209,-14.240175938785324,-1.418252575946413,-3.1159420822681843,-13.450484557315024,-23.309599052758777,17.70522936289825,-5.847499401549308,10.540342627362886,13.74184128653118,3.610378161953923,-5.522436384864055,5.434930487459028,-35.57603101829909,-0.6123724659864102,-5.393867907771608,-15.452801943967344
31.649254173018466,-60.74763250975893,-2.0748756373181028,30.705887870488546,1.0473814273140012,-12.768303731902817,-8.691299815165705,7.999238516605499,-11.086189013779544,10.224100730146269,-6.742101899587256,7.880793619316705,3.8388429564361166,3.058063508906024,-3.5147616303172917,-2.920614339529743,0.7968964914225877,-10.385689252668488,-1.67555569994049,2.874047122097983,-8.12879521951482,-0.46729754206607954,9.115860986882034,-8.65242873716781,-1.3214311756213135,0.5276176770933827,-4.478720115665428,-5.6380190306451,0.24250584073637377,-6.567926633452436,-5.077175054439478,16.52873442860118,-4.525133702779819,-4.101869751506278,0.44234324980759626,-8.671527596565738,-1.3306807911591818,-3.185057152507778,-11.024765461929798,-23.309599052758777,17.70522936289825,-5.847499401549308,10.585901166734475,13.37361992533793,7.51727801418104,-5.25982767420633,5.153255083223707,-23.525945123881453,-0.4073167832752995,-5.482833973226191,-13.371758547656668
31.875316962174626,-60.80321608232863,-2.844899558148894,30.8332030109211,2.1091408477463913,-11.978865800289567,-8.713986427583894,7.996185738830454,-11.489179449358316,10.150856084134517,-6.816615795894005,8.66068765342193,3.8565616742503943,3.1968675356059952,-6.121011413136371,-2.920614339529743,0.7968964914225877,-11.870851913584854,-1.7322805914303514,2.903082591143858,-6.717296002102688,-0.4673238625518696,9.06026926732755,-11.05159158734336,-1.3214311756213135,0.5276176770933827,-7.416602601825382,-5.4934619479050895,0.16275285850801097,-6.10033151812498,-5.071698652618334,16.73983311468729,-9.173867340977822,-4.0829507423533755,0.4173008892164316,-9.569966885161804,-1.2828706290089682,-3.2504260829896645,-10.060680943981723,-23.309599052758777,17.70522936289825,-5.847499401549308,10.473334924782053,13.87705270011893,3.476316461739424,-5.056041060691564,5.090903487948205,-17.91487798564404,-0.23593066500316942,-5.53509308108968,-7.947598853558513
31.991774737603805,-60.794314403559156,-3.0856728735585888,30.85858983957531,1.8057730190286596,-12.094718130308069,-8.686829567741247,7.992765785424166,-10.938974452373103,10.475828328640802,-6.812354843820949,11.902226119137545,3.8802862320721916,2.7927319014835446,-7.0452349268255485,-2.920614339529743,0.7968964914225877,-10.638900227706305,-1.7510251396616199,2.910712843631654,-5.818659035768029,-0.46734009447716834,8.861489436312484,-10.589537951831044,-1.3214311756213135,0.5276176770933827,-8.404803093233635,-5.500173824959332,0.1701427852130003,-6.748947469513074,-5.070483375143453,16.661525976964928,-8.522408993220584,-4.074306029531606,0.4070959428946316,-8.57467232307436,-1.2890580570275136,-3.248298125677569,-11.241899373736032,-23.309599052758777,17.70522936289825,-5.847499401549308,10.49598680581451,13.720947483037065,4.81834674388479,-5.056348975974467,5.074791412566753,-15.050605626276216,-0.26898254948362665,-5.527525862005949,-7.412259431691763
32.01421572843268,-60.79312366330858,-3.879686615137608,30.91539466849335,3.215730242960589,-11.562359126324326,-8.637844415099151,7.982070484480796,-12.132067716763421,10.660442797621561,-6.8254948241599545,14.169298023263323,3.8402236770824807,2.640828586601596,-6.943109011515283,-2.920614339529743,0.7968964914225877,-9.964764069882598,-1.7799216418762727,2.924652942055827,-3.690856952864163,-0.46740510043778766,8.916029893401966,-10.962370168177536,-1.3214311756213135,0.5276176770933827,-6.795293418647731,-5.446895184051767,0.1518088682244355,-5.20572987428339,-5.072693498645716,16.56706756719585,-9.236781774830948,-4.065059632553367,0.39240974113188126,-6.7276175456388,-1.222259905290706,-3.2554466100038284,-9.259675347890182,-23.309599052758777,17.70522936289825,-5.847499401549308,10.484295415615264,11.806290148052978,4.029504426882317,-5.058443535751859,5.02996303146686,-11.812416196380894,-0.22788519442747046,-5.539326253594116,-6.020637860344245
32.06724482410671,-60.79243389758742,-3.6514107399736044,30.86608097914894,2.433397222826706,-11.87428712850259,-8.705969340374153,7.990960460960818,-11.312574887693849,10.705080490438355,-6.799565181742682,15.588881882977589,3.876643617855275,2.6251524482831012,-8.183030062075769,-2.920614339529743,0.7968964914225877,-10.621908675439734,-1.821667766987038,2.9346644952974748,-1.4367429861682108,-0.46742181112662334,8.855729605396432,-10.570744239149398,-1.3214311756213135,0.5276176770933827,-6.318590090479738,-5.4097556260634585,0.1312021205728306,-4.2153959633967,-5.068801538664856,16.891140654123106,-9.433875672499074,-4.062732596741859,0.38471737703960707,-5.878039566732216,-1.2276493080174826,-3.2863046427393616,-8.135258117217125,-23.309599052758777,17.70522936289825,-5.847499401549308,10.505615742254072,12.789795898143069,4.827556724382747,-4.9314541617190715,4.972870506332149,-7.749686201259927,-0.18230957159332034,-5.558719679244254,-4.316474111689947
32.266154443760236,-60.8215721917267,-3.971510940651065,30.92588002877662,3.3894006797020078,-11.482461145168276,-8.754456545469452,7.997806499485383,-10.377381217934424,10.777249877076182,-6.805477955916207,16.696705400453858,3.895646621003818,2.9197089994239627,-8.534774581326186,-2.920614339529743,0.7968964914225877,-9.491096522002316,-1.8426034876982649,2.944203685153858,0.3609335676399681,-0.46735505123420057,8.881364123741463,-11.01242340935594,-1.3214311756213135,0.5276176770933827,-5.751718020372081,-5.354083704135089,0.09761227433160052,-3.1792091220584773,-5.071519413461838,16.507836662183568,-10.196639818141993,-4.064937299688915,0.3850296695021972,-4.918684416990462,-1.2293976111038774,-3.2856374315627517,-7.64809576017953,-23.309599052758777,17.70522936289825,-5.847499401549308,10.449846337257155,11.567409938513624,3.051364516450727,-4.955094021228855,4.97485774655871,-7.08204354955544,-0.17825532891363366,-5.559873667791643,-4.154115261620337
32.46300826545416,-60.84170303396335,-4.935243169859077,31.024162608044435,4.903089902291037,-10.799123209903296,-8.73404412511887,7.996055211171484,-10.887349863767406,10.712639255387758,-6.8001898986581955,16.456176805244485,3.9388588520296928,3.1869595164736184,-9.893274452670914,-2.920614339529743,0.7968964914225877,-8.770772240469718,-1.836070234819285,2.9456077000580057,1.0948276342080074,-0.4672045974909854,9.17235059785997,-13.132508403365723,-1.3214311756213135,0.5276176770933827,-5.665527574712513,-5.352775897439002,0.09638948358544963,-3.094937994656423,-5.072846508341425,16.305654157203804,-11.023367963618377,-4.063320417647728,0.38627215947133986,-5.98624470801494,-1.2587031327982756,-3.2765518546357235,-8.707537605882091,-23.309599052758777,17.70522936289825,-5.847499401549308,10.402473588523323,10.4428898851246,1.0100262119830123,-5.007927889468087,4.997226792428267,-11.405677970924916,-0.17419809912185985,-5.565946563904468,-5.4326715547003
32.52074061720994,-60.86575447305847,-5.24474976018937,31.018510224395197,4.9652861053405335,-10.802702882646965,-8.713940104419427,7.991708277396378,-11.25512207476746,10.71270066706079,-6.796556173512735,16.174950611030297,3.921642544674821,3.2439358066632478,-9.551591639465038,-2.920614339529743,0.7968964914225877,-8.820385644097737,-1.843389542688025,2.947032043577505,1.7797306434310904,-0.4669604626133886,9.182965622364655,-13.529833962763881,-1.3214311756213135,0.5276176770933827,-7.171147481032964,-5.354449453222048,0.09913548300167052,-3.6902832088734723,-5.074061922399408,16.20053791588833,-11.773776846974298,-4.065303820692952,0.3910403058442957,-6.55365613088874,-1.250861340941118,-3.2673465813400884,-8.64638699572456,-23.309599052758777,17.70522936289825,-5.847499401549308,10.407912313792176,10.413180638290118,0.7270710143258938,-5.000873658193252,4.988929186015684,-11.121250634931705,-0.16252914363360665,-5.567161870387435,-5.540037159191679
32.461363631991965,-60.85277360825629,-5.110779594668425,31.028901696887665,4.98823356257929,-10.751096972905222,-8.71313134138312,7.992137882865901,-11.71957603316061,10.751269012354282,-6.785998631261247,16.81904586455095,3.923679051069409,3.5528244273229697,-10.042272927017489,-2.920614339529743,0.7968964914225877,-9.163286968992537,-1.8396809130622973,2.9441528759407567,1.1134753684475065,-0.46684507829925054,9.224060722116795,-14.494373915315458,-1.3214311756213135,0.5276176770933827,-6.536856986040068,-5.333877302397465,0.08653571024171203,-3.5470416059372933,-5.073594067037144,16.174722762440787,-12.182390457277466,-4.067616765895698,0.39597559182457,-6.729844685998824,-1.253688880710262,-3.2541031592848637,-9.007427158052966,-23.309599052758777,17.70522936289825,-5.847499401549308,10.403611694193145,9.983117534128137,-1.0605248234094962,-5.024087418892918,5.004788101317715,-11.727409458113623,-0.20249251565186666,-5.559322592428289,-5.8334365456898345
32.53665646455758,-60.8729838827603,-5.427261857172587,30.980592866228687,4.157495418354715,-11.082259240798356,-8.755078708880244,7.991280985596997,-11.503223016314095,10.70325235101006,-6.783287777342812,16.04186449428062,3.9368235149859623,3.477059809031395,-10.890799918245017,-2.920614339529743,0.7968964914225877,-9.481264337181877,-1.8464091083793321,2.9452454024037813,1.9894255879863927,-0.46691185660565543,9.50517542035898,-15.13433740382601,-1.3214311756213135,0.5276176770933827,-6.667795221812224,-5.346912659558081,0.09027854684405245,-3.013078068894508,-5.066020757804554,16.829679760885917,-13.056916033127608,-4.067582311994505,0.3938916057279625,-6.45599035762223,-1.2872381716311487,-3.257362722046473,-8.180050550032796,-23.309599052758777,17.70522936289825,-5.847499401549308,10.4179214960856,11.055998903222754,-0.03741056324364678,-4.967897804904241,4.98001885406621,-8.63856341203326,-0.14813997398719486,-5.5724223091766145,-2.674073459651213
32.7141303180121,-60.92859072525763,-5.9149325887738415,30.988277413381105,4.129144018277407,-11.051516435984125,-8.645417994801777,7.969552246884428,-14.09201507465337,10.739402193227628,-6.811303340595076,15.284674317382628,3.9584321076160265,2.8344956502638827,-13.001070814650195,-2.920614339529743,0.7968964914225877,-11.51516838010306,-1.8472203053401917,2.9472628387013446,0.7391042300213932,-0.466684160810657,9.042114694230937,-17.17813560004623,-1.3214311756213135,0.5276176770933827,-7.9457053132668385,-5.34946381949305,0.08826930879026806,-3.7663343271076286,-5.06620932188263,16.777608953008006,-14.797282677405146,-4.077035634859477,0.4052800924963031,-7.061699833968987,-1.3220455566184803,-3.2350332203245373,-8.357570981191524,-23.309599052758777,17.70522936289825,-5.847499401549308,10.409089029246227,10.955992748026107,0.47457620770068587,-4.997557704867173,4.984249756105348,-8.070123092600753,-0.15290286979557888,-5.5712766544211165,-2.923194471943212
32.645208292485755,-60.91953236305267,-5.662421905181616,31.020793773626252,4.48539911788378,-10.849655009702433,-8.58730049015675,7.960920906739508,-15.049476571758785,10.611751045347841,-6.799389266415399,13.495912743260742,3.9700793817468636,3.0380545417815137,-12.872543509340263,-2.920614339529743,0.7968964914225877,-12.486427681475611,-1.8425468336150936,2.94463133770883,0.7389564261599677,-0.4670078463930539,9.013105133654763,-16.23986356973225,-1.3214311756213135,0.5276176770933827,-8.011468149481455,-5.357897388459173,0.09539393394389023,-3.9672331097370233,-5.065179182815571,16.958981488440326,-14.276630061880246,-4.070555017478761,0.3942536983532296,-8.281870088477625,-1.298294512757721,-3.2563976971275097,-7.883405066528125,-23.309599052758777,17.70522936289825,-5.847499401549308,10.450185929327258,11.358961366941692,1.0876005727727769,-4.9506635267864665,4.943429383425772,-7.698020419589859,-0.13265797550789016,-5.581613757744772,-3.09419714525594
32.67113858535226,-60.922093681785206,-5.221918143286352,30.975454949649116,3.957994071250209,-11.163550978856348,-8.58029640597825,7.958632328483939,-14.93991650734436,10.671566950306389,-6.80149837774408,14.836074669097432,3.9746622895981174,2.781230102882973,-13.103950127822094,-2.920614339529743,0.7968964914225877,-10.462310002188673,-1.8427734994417415,2.9450815763363667,0.8371262570899471,-0.46702419570748915,9.011567986962199,-16.607682071922916,-1.3214311756213135,0.5276176770933827,-4.883001311878026,-5.345365761701206,0.08712298847952393,-2.439139849887937,-5.065675341855948,16.790749586202516,-14.272561007274865,-4.07372751773949,0.3978411404969966,-4.983917259077369,-1.3135980711965076,-3.2391458063820306,-7.2229020472243946,-23.309599052758777,17.70522936289825,-5.847499401549308,10.446178746571423,11.08379685029914,1.0092002629662797,-4.969644651824099,4.9650938426730535,-6.827499359276064,-0.1540475489157841,-5.571295283895898,-2.4998103611166513
32.367969824825664,-60.87315096332143,-4.501429781501361,31.01560646446877,4.686500994912723,-10.838306180624379,-8.627346549359299,7.967813054536317,-13.20220608677806,10.681021620217827,-6.7931724335255534,15.860642655159083,3.9744991728892947,3.2026323119417794,-12.175232094984155,-2.920614339529743,0.7968964914225877,-10.98378088630422,-1.8339688136633694,2.941522529508861,-0.19696748513199935,-0.46684651919335673,9.340344424043108,-17.29494151853379,-1.3214311756213135,0.5276176770933827,-5.269071137291803,-5.357405058991475,0.09086410961571562,-2.500241544761881,-5.0701474093185315,16.233402667167535,-12.94093755593232,-4.074788246785886,0.3990082067863331,-5.10055902671062,-1.3323468576642723,-3.243361639830144,-9.341864218947341,-23.309599052758777,17.70522936289825,-5.847499401549308,10.412985639926504,10.541970487200281,0.43644293305570514,-5.036245487702483,4.99036631871143,-9.970559416452303,-0.14933824559087722,-5.5716253614033295,-3.830405049536136
32.31390345138635,-60.84075973299845,-4.594459996210982,31.063186769053264,5.069967115150546,-10.586947119968272,-8.670789088802758,7.980917356840105,-12.328731290262924,10.778879753375403,-6.818864459238015,17.047520720881376,3.9780921356857504,3.299743098122859,-12.476602415493979,-2.920614339529743,0.7968964914225877,-10.512517575118295,-1.8387360793894654,2.944103815862097,0.6086647409126051,-0.467083474919648,9.222712079703543,-17.27281410663214,-1.3214311756213135,0.5276176770933827,-8.36804701010232,-5.352395472531225,0.09278880302532083,-3.4473411216987113,-5.06973723578576,16.28241427744271,-13.199868983134397,-4.072656870295661,0.3958096325810254,-6.506704906528977,-1.3179758417961447,-3.2593666961705363,-9.754978099197016,-23.309599052758777,17.70522936289825,-5.847499401549308,10.399397161273397,10.79368302207587,0.8527454893444695,-5.0106678121478305,4.989776519112815,-9.845603527262313,-0.14523241890075955,-5.5720813678320775,-3.606473172204879
32.27153797332825,-60.828835121305886,-4.85959928803373,31.04380825776782,5.113565009692183,-10.62057244777148,-8.657402603844263,7.979060927144108,-12.481774503516458,10.785840762093189,-6.8232461468464365,16.49975889442451,3.984620340813253,3.504905854282851,-12.626918177903198,-2.920614339529743,0.7968964914225877,-11.263731688748024,-1.8390446808667587,2.9439293523450845,0.0386781986529936,-0.46600902136072353,9.407904230930122,-17.459998099719357,-1.3214311756213135,0.5276176770933827,-7.985513222084926,-5.3918346733854765,0.11162784075167426,-4.10380873373602,-5.071222521849954,16.251920649950986,-13.558667821633907,-4.071607741981567,0.4025999616634638,-7.8991379227475065,-1.3309777427283755,-3.2371921223325018,-10.320180070206009,-23.309599052758777,17.70522936289825,-5.847499401549308,10.35854979943906,10.340167509933302,-0.27665851063527036,-5.07055112262389,5.0369155780412305,-13.482273005983865,-0.17479995316449892,-5.561490137563592,-5.587562040675244
32.30305704564868,-60.840473979703575,-4.725303504765718,31.06037000628809,5.377272727802945,-10.494268319785817,-8.66214958800972,7.975866983791501,-12.27246683538994,10.736600541753017,-6.792593541968241,16.399315036539402,3.9744631400356636,3.4238353168617683,-11.807807224418372,-2.920614339529743,0.7968964914225877,-11.361618105915316,-1.8308922284527092,2.9416901234428185,-0.22104735983731594,-0.46617522136045725,9.352721183888082,-16.86009586943411,-1.3214311756213135,0.5276176770933827,-6.644785476912059,-5.413978981364036,0.1258340219637476,-3.63236246725511,-5.070862680446077,16.30661139191544,-13.18307492202808,-4.0782889050366835,0.4119666552287269,-7.153294259681619,-1.3351794832781447,-3.2390223253035813,-9.775976966882013,-23.309599052758777,17.70522936289825,-5.847499401549308,10.372478951573983,10.459621814868221,0.3226369386055499,-5.052655395508846,5.026542427454109,-12.060372910825624,-0.1757253023517078,-5.562469140032871,-5.165780448544986
32.60739019090954,-60.97139215078659,-5.3607544731750165,31.020138911969735,4.779403231584782,-10.8035337867993,-8.633340965465008,7.965111892069143,-13.221449687539657,10.66892947462569,-6.772423916076674,15.3199306636597,4.0153076518985955,3.2103468981821566,-13.79242509357454,-2.920614339529743,0.7968964914225877,-13.298216820678158,-1.8189490047670203,2.9339862502472873,-1.73209269386507,-0.4666615093108179,9.342435361549413,-18.504588709874042,-1.3214311756213135,0.5276176770933827,-11.452425005775739,-5.469277827233527,0.1445444617753956,-5.149435969239791,-5.068847522167944,16.298777393430743,-15.40295632083482,-4.087568837233972,0.43522633467826166,-9.515645713847036,-1.3914410813974967,-3.2053259400607925,-10.64353756383631,-23.309599052758777,17.70522936289825,-5.847499401549308,10.381415315884972,10.00667322223878,-1.181504441570688,-5.080384412363034,5.016959577187184,-11.112508242931018,-0.1673093056780921,-5.565994900893813,-3.7841693029361796
33.123216826596895,-60.998171647109345,-7.975213093590444,31.007160059941118,4.690427764648622,-10.890831173153643,-8.602546378081733,7.958506359863269,-14.342194556667945,10.801406406284123,-6.825806090872163,16.314833318404865,4.00107012856663,3.426619624551595,-13.729381757279628,-2.920614339529743,0.7968964914225877,-11.744905580365923,-1.8500571422450383,2.9453984547920458,1.7137771536246191,-0.46581828242797646,9.237863153899461,-17.896768862927196,-1.3214311756213135,0.5276176770933827,-8.256920807286075,-5.389558585095376,0.10555571248217083,-3.3638906267549284,-5.067132385679684,16.559629089446876,-15.657597791322209,-4.091121231220835,0.42878719339216004,-8.617721423148922,-1.3205712612140887,-3.2292567799063336,-9.112338214708108,-23.309599052758777,17.70522936289825,-5.847499401549308,10.373881245873756,10.249324463898336,-0.2722181762390292,-4.982412038556379,4.986783518267745,-8.563994736763313,-0.13435830972438673,-5.573578200824202,-3.2327107527322667
32.8111279408785,-60.929106080969966,-6.270611346595469,30.996236585605825,4.44413084469509,-11.02340666965558,-8.669155274218223,7.975698173088422,-12.960818217211298,10.80936386266247,-6.825952394802363,16.2878944865309,3.9929391198282063,3.043345647094175,-13.786369217584994,-2.920614339529743,0.7968964914225877,-12.830109178913311,-1.8507659357977377,2.9463510541313136,0.8598459932377871,-0.46650733133970523,9.2477907550931,-17.75055249798895,-1.3214311756213135,0.5276176770933827,-9.633895192866998,-5.3773898533587134,0.10256013618779691,-4.278474139265747,-5.06771125275959,16.5593440057707,-14.90367493582963,-4.078846302549655,0.40868314613275303,-8.053668749235737,-1.3362679396712869,-3.2319300260139707,-9.594652455708315,-23.309599052758777,17.70522936289825,-5.847499401549308,10.380848782002548,10.187718951653679,-1.0687468356735508,-5.054635661473006,5.006780663740274,-9.457353264748548,-0.15151189798463466,-5.571921967239543,-2.9156375133105943
